0.6679349174260985
0.6816160649625755
0.7054038627306981
0.688992760269307
0.695008270269495
0.6834851291667615
0.7236638065324738
0.6829098713624573
0.6892159149826109
0.7215103685020942
0.7091607404584063
0.6974305842477977
0.691739788022811
0.7121448386303917
0.7217881260568025
0.6985235986460778
0.6958490505575903
0.7108354736159495
0.6647292620554373
0.6997350874655776
0.7065671390570504
0.7038976689666856
0.6732639831812646
0.6721616047814175
0.6524336662937581
0.6986851533021724
0.7197225436987073
0.6572946033552576
0.6958699329422343
0.6925928931213189
0.713624215303291
0.6919058655957846
0.6998676086019485
0.6879978579713677
0.7138667336099901
0.6937054152873919
0.6853306744119477
0.6933695319444863
0.6994198047805466
0.6955559129885961
0.7162627580003027
0.6874393048110651
0.7000491861593767
0.6749655781756344
0.6715279846380264
0.703382187667457
0.6909553371158883
0.6840023608719651
0.6852565410222217
0.6859640674585706
0.6483977700496927
0.6687503380182866
0.649007015449104
0.6703127091093567
0.6740539787165293
0.6465740241398483
0.702686592182281
0.7184530675127238
0.7009615980829226
0.682703122072042
0.7030044045829631
0.673948174769177
0.6989325233246326
0.6854514436541354
0.6624783712726664
0.686644177762134
0.7089273114502546
0.7073158765538253
0.679951084642868
0.6671441925598081
0.6900778074938856
0.6750606851349249
0.7116957223956777
0.7085491032610906
0.6600328611819799
0.7177208585405309
0.6998504381264219
0.718467535409495
0.719665579439593
0.7019007431904472
0.7125872627458704
0.6728477602703917
0.7059611468747335
0.6864468381493551
0.6721844918964286
0.6624313784827688
0.7000252774070514
0.7163098244460657
0.6708880956407832
0.6950888707694678
0.7161647422403801
0.7088667936697656
0.7062233384493574
0.6471675023545042
0.7153382224714857
0.708079407906605
0.6854792583595102
0.6898125956358824
0.7000087731125999
0.6921578456320857
0.6838171094872582
0.7114278402592903
0.6445739434843679
0.7353502847532635
0.7048221442124081
0.6973614949213992
0.7190237013035258
0.627101036047275
0.6719575645063132
0.6776425191833573
0.6769311584940155
0.6654544422576582
0.681724388024592
0.7053835590325804
0.645850254938896
0.6531800157491371
0.695244859072015
0.6851928256677183
0.7208841448734032
0.6828066541417925
0.718866964004873
0.6851750009737245
0.7051949812507228
0.6881464552097931
0.6833215126604093
0.7075490284478297
0.6629927076682685
0.6868406504889254
0.6821199430664717
0.6834651197031867
0.6887382024511491
0.7067466427142371
0.6806877424194048
0.708432993675808
0.7036405615492258
0.6910423040228053
0.6957796120496137
0.6555005937017793
0.6761253935354211
0.6615685313553104
0.6824913092845387
0.6918765589187954
0.6991436506092463
0.7120606098883396
0.6983760221938807
0.7013209812638203
0.7128754387809604
0.6701665177210044
0.6839079977892171
0.713111400691064
0.6953426237766628
0.702774347904367
0.6864345162988439
0.7093263033272944
0.7137685796599506
0.6729102854372444
0.6710072216628482
0.705007968309035
0.6571403671349125
0.6790298725753678
0.6867591569224011
0.6840526848301828
0.6709361377342785
0.6727373830287884
0.6991384829493893
0.6853087076823754
0.7040951863065261
0.7191472132788568
0.727715203074971
0.7203517982981419
0.681365982596233
0.6920911630044456
0.6894695024563112
0.7134130383995984
0.6981780943821934
0.6969019891293814
0.7016831726743152
0.7167103686107801
0.6999413263843521
0.7338673706712715
0.7090601458112301
0.6767944013292317
0.7079630974098832
0.6833685692425059
0.6751067039241725
0.684095755753311
0.6874493681473506
0.7018442543796157
0.6860427366811207
0.7225507144399748
0.6753951969608355
0.7108434954127174
0.6967773167191389
0.6662776282050337
0.6704173329276564
0.7449521177609018
0.6619189942562103
0.7094015316636317
0.6937886920193821
0.7203717121116818
0.6806423465756272
0.7011649143766356
0.6971549547129544
0.693394442625153
0.706821135561831
0.6851534997469879
0.687765289205348
0.667683728271924
0.6939853930780114
0.6571800904556345
0.7017342579531305
0.6636433172377493
0.7183625439241279
0.6975857768864971
0.6933940180226138
0.6768029553267262
0.6948208422511915
0.695165942067049
0.6887199784626858
0.7130547689070322
0.7043731110639904
0.7070704009545549
0.6569506125411803
0.7050788644427665
0.6941212486436095
0.6811587991656373
0.7053269190219473
0.657248628934218
0.7137465075779533
0.7308666554256315
0.6814156009478611
0.6909621521882112
0.7243479526615696
0.6777590707910811
0.6632083243028886
0.6890903694446711
0.6668625213781444
0.7137733450091719
0.7152310559987111
0.6900149957224707
0.6891118035498313
0.7261527150527817
0.6721859825882279
0.7197322716008103
0.6905199911343264
0.6855307190703436
0.6664213383194652
0.6754206125554995
0.7176748778640634
0.711192604319171
0.6855658141124342
0.7115025234861387
0.7241087751352773
0.6627969685437064
0.7007730331578449
0.717349676979404
0.6592664476585499
0.6954737801906602
0.7235621484395812
0.6795960341317463
0.6701925355554523
0.7075087611585056
0.6884887248991688
0.6689571193670591
0.7069264019992841
0.6716605009033741
0.6768973329930851
0.7103427487849626
0.683062193094589
0.6794939986736699
0.7001582194447992
0.7094606187716835
0.6291193083932589
0.7030336011034893
0.7178861808444021
0.7049024167550698
0.6743847766571174
0.6737899953442336
0.6888993053718848
0.6497704539178621
0.7103895067567693
0.7345370151314138
0.6901665490507632
0.7042469690780282
0.6843080703209102
0.69041943903313
0.6835102493172999
0.6785929584527675
0.716424855033212
0.6990947982132197
0.6851317369740492
0.7138798715671578
0.690439567852773
0.6874335061418598
0.6966367892709201
0.688426850702502
0.6964435841329835
0.7280734247300925
0.7077004390553187
0.7157357680218727
0.6469433301176616
0.6982027880170002
0.6845728983777993
0.6945522160238843
0.7130669191918831
0.6875599702353486
0.691756691971517
0.7041425925679458
0.7087075293933542
0.666183522819765
0.6870963087458237
0.6903393741520942
0.678041905140609
0.7014386959076581
0.6981604682630189
0.6904553391103678
0.6519783634316529
0.7118722644657665
0.6983350917425069
0.6764302398659666
0.6717033841328013
0.6868075355527401
0.6376922995427119
0.6769525532716337
0.6698643417417466
0.6780690238881019
0.723542551079757
0.6970586233535401
0.6946824872323595
0.686795117094843
0.6989812595964878
0.6837908513802281
0.7037385135617014
0.7012066231583022
0.7024946157874583
0.7312385141422914
0.6748387008568648
0.6972021413615253
0.6767949876299546
0.6758339493733929
0.687732498947457
0.6733352308753756
0.6853670434511425
0.7143490274306428
0.7033206292281103
0.6867102013123361
0.6941015944737967
0.6778865604034354
0.693539589962122
0.6963182881039184
0.7159868977157208
0.6696825153926775
0.7090018062914722
0.6801631321191914
0.6965447988078527
0.7043984195254588
0.6795143015511234
0.704289595216135
0.6594286965473404
0.6931266699209037
0.6837951069808778
0.684451711656406
0.6980720432668571
0.6942930079721449
0.703707773188943
0.7060924865827839
0.7174015470901512
0.6740787522025697
0.6940000800488324
0.700836723252597
0.7016757056315085
0.7020345269886701
0.6495514996436238
0.7062407677865825
0.7135957415376987
0.7135165365118331
0.7084697907348981
0.6633778004208025
0.7233758838364959
0.6678248000223092
0.6550925635454172
0.6920899834005257
0.694099140126278
0.721111952696039
0.6923333511748065
0.703203270391147
0.7180056825821359
0.6716713625960293
0.6828464042290547
0.71224879494319
0.6858383762356116
0.6671392649953087
0.6943737871575717
0.7010614053427989
0.687490628479655
0.6926572872798139
0.7118875780634484
0.68724947830496
0.6843659572675662
0.6674057043972628
0.724614369733618
0.6809171928973796
0.6684121297491619
0.6680655361674738
0.6981863943437792
0.7094311498487138
0.6886161789476194
0.7011154650470351
0.6958889751438564
0.7195986980290326
0.690763694496176
0.7136343884437902
0.7025097884654506
0.6946161633848571
0.6674284616800563
0.7102752927247996
0.6970254680588945
0.7031437304162712
0.690773615908565
0.6499490900316328
0.6778584757354404
0.7096027987244599
0.6748720613039412
0.7258120905372708
0.7196576086355209
0.6822022484682956
0.6703242094308172
0.6766310495888187
0.6958498965474884
0.6957839242072447
0.6724026662311202
0.7141528276319266
0.6840920201269886
0.6913978597141782
0.6874606332662111
0.6804623575896674
0.6982085231570193
0.723765332053755
0.6743014458984673
0.7189725239668974
0.7207988391230783
0.7025239632753346
0.6952914522571261
0.6919879059030244
0.6847877861690466
0.7014036623424889
0.6755315770850754
0.6644581955287434
0.7213377075414382
0.6701793264329899
0.6808994102081904
0.6851720503090555
0.6692873456514737
0.6840420866514937
0.7235340033163287
0.7017408103981005
0.6838209029106688
0.6680648453529919
0.6459109500303877
0.7207776693641489
0.706537981690013
0.6934076609178484
0.7048649733265872
0.7423938921814665
0.6634377565369237
0.6979225881460598
0.6826789708475047
0.6477192652884164
0.7120005821760018
0.7013249734900311
0.7084430777057148
0.7096770411488228
0.6777376874619077
0.7342144080934704
0.6889170616458642
0.6933494582820564
0.6892817540739766
0.6962578567333367
0.6632745935553161
0.6574837700492644
0.6740703680616706
0.6738022149638625
0.670461388581221
0.6829893292039105
0.6982078606315463
0.7007702773842773
0.6635536161575833
0.6800671925243723
0.6648262817275746
0.683896635414234
0.6671799874079389
0.68070555444624
0.6944599639914608
0.6901661845637649
0.7083429050732505
0.7359042113188629
0.7039427843575667
0.6905122216269881
0.7023974759047042
0.6854219864641848
0.6514361893565044
0.6901628339889692
0.6912611226985499
0.6931821283671739
0.7083345584231824
0.7272528344855778
0.6858814053026134
0.7092063899299714
0.6955809274048705
0.6571149848177859
0.6855213485840445
0.6838003002636002
0.6960594342212
0.6993675648975746
0.7163767505502822
0.6729141744580107
0.719014865819585
0.6926549571596095
0.6738689600186722
0.6861449529871111
0.6878968143477948
0.6765695190343571
0.6969772490490505
0.6827648002450557
0.6814780495177098
0.7299688565575853
0.6956909884566477
0.6922706279622434
0.7049921065017875
0.7209085039181548
0.6699068751540159
0.7273525668338685
0.7019682366325025
0.7044422686790618
0.6815494634967163
0.6732397643330608
0.6822097879515505
0.7347263368161953
0.6997692454764493
0.704150476939057
0.694092303713692
0.6902149253501838
0.6754689035660905
0.6776916931846435
0.6805615416648781
0.6766437835072042
0.6708704174235983
0.6983200146941513
0.6571692206750651
0.6831278838116674
0.6969594479649879
0.7066198418215375
0.6546737973630844
0.696109644960311
0.7085656130614697
0.709374693406679
0.6888009826361808
0.6690542165353268
0.6867484506507914
0.7182784481165074
0.7005163668193278
0.6681520621441605
0.6720547106827495
0.6968400044048007
0.704510323140787
0.6810067335945549
0.6618274930602277
0.7323227928982138
0.6787474776128498
0.7054572818017673
0.7317485860470301
0.6962078918062923
0.7019033058899506
0.6801312969374755
0.6963232087666318
0.6520692997031206
0.6966570436883514
0.7189430212172232
0.7024501015322656
0.7144327073289182
0.678043899088747
0.7154280846921843
0.6840765747952869
0.6906597307357497
0.6848274305719165
0.6991645218245998
0.7179012780617854
0.6618073210059456
0.6998619277557593
0.6806991433119086
0.6753548795676676
0.6859232195194441
0.6942613690689797
0.6880772093546254
0.7022850631636808
0.7036624013648496
0.6857964838205775
0.6668223900023099
0.6586527800066283
0.7127133121567699
0.6927623026925418
0.7040932259616484
0.7208769501305062
0.6801372864174114
0.719448518467698
0.7164832144908884
0.6799379577601665
0.6935145820705486
0.6871736524495826
0.6774758004408014
0.7105853276437261
0.70642255669019
0.7100461920461895
0.6523634346273214
0.7110584804062291
0.7061978104630925
0.6730192886079595
0.6572941347104728
0.6772185002406771
0.7158991339602093
0.6910199222061636
0.6749581215481082
0.6762561782523656
0.7381868720959253
0.7032381951187924
0.6824196464958048
0.6780322784892795
0.6616739231025162
0.6832465155641944
0.6848340703986809
0.7065571021777352
0.6803021066323491
0.6916380423126461
0.6964792091687274
0.7079422779024491
0.6959613226984338
0.6771971781659607
0.6989067075239263
0.6584096596147746
0.6960382289868046
0.6845403165356523
0.6908157769993516
0.6941421241322316
0.6742647175214319
0.6623444802859592
0.698261609164064
0.6470307999784763
0.7131349127632461
0.6740431932144533
0.6536419568966884
0.6675228957798613
0.6928597081504055
0.672295233277768
0.6732922999193448
0.6948015317881576
0.687745875882948
0.6864014403579861
0.7133284896422472
0.6727778513581104
0.667327226376267
0.6822460519753359
0.7165267627336444
0.67594728832172
0.7109362871343824
0.7016445955882334
0.6864845309641406
0.71746927044952
0.6931704089061133
0.7025957436293926
0.7124606003481737
0.6899202256866829
0.671577134992935
0.6898938814743287
0.6897242688232571
0.7106930546343968
0.7326286986806899
0.6708770078893984
0.6980593969623419
0.719395918128396
0.6760586133054406
0.7025663452549605
0.6523444004450193
0.6839895913783824
0.6715512332752618
0.7023618284814206
0.6886405733733294
0.7015811020573686
0.7289315859722445
0.706513907982486
0.6967949194171175
0.6586204199874882
0.6833424098319643
0.6928745757517694
0.6883528980405251
0.664791191948018
0.6821274667104172
0.6990721545061003
0.6360877354140638
0.6968741269401204
0.6898746118469641
0.6709121754065042
0.694610821930565
0.7116411612914046
0.6992321122041694
0.7050010243008608
0.655216791127327
0.6718969582395384
0.6818477527151833
0.7165410354271481
0.6878474734896015
0.7041021206857512
0.6937660508428565
0.7033530280296285
0.6862768672719368
0.7371551681972035
0.6778946517329029
0.6726936844058455
0.7233763332549927
0.6951665108487538
0.6926553559964466
0.7302309816391244
0.6970667692076414
0.7019268900192124
0.6761109746141637
0.7052652141951256
0.7065000148511239
0.6692400698063873
0.7205945004955975
0.6914301325197874
0.6718451685274276
0.6628882627264326
0.7093602276451767
0.6701832924399589
0.6905590422117086
0.7126258482950647
0.6631766212808773
0.6774762699121523
0.7137940071925315
0.709366375528751
0.7045672722222093
0.6904853201727076
0.7169285837747751
0.7040614621056296
0.6792174141635251
0.686905934561502
0.6834994099914274
0.6971819530173203
0.6827912664077052
0.659444497904672
0.6816767008264939
0.7024779266469798
0.6621387116658664
0.7140800850155136
0.7072857866700327
0.6933755752305628
0.674091578826489
0.6686965321883543
0.6856328263234607
0.6915330741365573
0.6898446146858646
0.6814414361278482
0.6835402660516651
0.6883960829064342
0.728559642167187
0.6446995149350766
0.6898173375028919
0.6756858768805672
0.6712267230441892
0.7070583501758324
0.6793766335073648
0.7340307056585529
0.6980253214879243
0.6693302048529159
0.6619433556480834
0.688881906139068
0.6834319191605706
0.7187999267309974
0.6739898501277901
0.6729913101907231
0.7360206114762636
0.7021246223339197
0.7164887920432995
0.6963096905229345
0.6582763370942288
0.7033183163567791
0.6396980585093591
0.7274820450465576
0.6769452940013369
0.6582868080924739
0.7045851856066921
0.6925555840767312
0.7274194561162579
0.6873641280085152
0.6439780510163418
0.7036438646372726
0.6646035112353965
0.6698357995836897
0.7218433976289859
0.6816362137547112
0.6615024978901194
0.7044410314350671
0.7078279265699343
0.7242981569667456
0.6737235829783901
0.723242113476466
0.7129650716693962
0.6752931885781356
0.6699238480808415
0.6773262974981178
0.6853312042949881
0.6832525635069708
0.7151253133974348
0.7060363229944049
0.7056655008801335
0.6944061610680761
0.7199638058335154
0.7184173149988995
0.702008135962446
0.7135023399261721
0.6828571188557987
0.7315471686320503
0.6951660083428476
0.6861886665615312
0.6758086730076425
0.7251175926173884
0.6966529733231919
0.6518611046508331
0.7066725756391478
0.6871119013196382
0.69629470335386
0.7029601701663136
0.6933072068787651
0.6891076631013843
0.7007018706588327
0.7319458630535823
0.681389721364426
0.7132012921049158
0.7180107406603675
0.6946290754549898
0.7149738372708742
0.7124494328138824
0.6798715213152052
0.7002590342385613
0.6806183969073925
0.7059909264612757
0.6892839808974182
0.6916399880758413
0.7017008398015899
0.6614400341569936
0.6501638230502278
0.7198740390204106
0.7177272585824777
0.7116764217606776
0.7175011223002492
0.7066899891974314
0.749588436113865
0.7051149102918132
0.670939831008128
0.6939188872036375
0.6912027043380755
0.6504894561863694
0.7317565536032729
0.6856032872751024
0.6965220437777915
0.6931990840370398
0.7045402015992372
0.7332603580926057
0.690065623929163
0.6678975849286171
0.6975582984897782
0.7329225500040342
0.6665155607702957
0.7092000515555849
0.6813196011884878
0.7220630260822628
0.7050832672229274
0.6976775915683595
0.6588439440556962
0.7123598430539414
0.6803794457024782
0.7065221625731254
0.6623635246210274
0.7180646860907653
0.6978253582627564
0.6783625634309602
0.6995571769729975
0.7024787250110863
0.6735004391383131
0.7060153187598774
0.6844399987748072
0.7107917328991842
0.7141193774892597
0.6842432930686274
0.67780568926134
0.6629083907416613
0.7128772687932109
0.7099699966561732
0.7118688972129146
0.6956711703696542
0.6677764052836087
0.7117691920510465
0.6923109446054898
0.6799472240556987
0.6730562891866573
0.6857411141198738
0.701322733392936
0.685621768888375
0.649238203908756
0.6930975103780392
0.7079218308602773
0.7230683086420503
0.7002331202695701
0.6830083781957198
0.6728799794750226
0.6833133392355306
0.7015479917480126
0.6961199827985775
0.7067393544241155
0.6848017473326803
0.7000754802823941
0.7321214415120554
0.6849042106124577
0.6580472245260711
0.6851659959848975
0.6824128485906055
0.699268724232571
0.7099873045242658
0.7331897192906611
0.7034497091575258
0.7085316670229191
0.6802927669917486
0.6962005683186289
0.6571658657354268
0.6907617903471414
0.7042735710925382
0.6990055286830636
0.6586327737796227
0.6934568291279614
0.6993411028834662
0.6856627934549557
0.6695930005360048
0.6896303447941983
0.7006950317978567
0.6758203583635414
0.6346354068862701
0.7321377826836718
0.7037391251581152
0.6986463176346562
0.6873115708626364
0.690586671026674
0.7304320329026457
0.705431436587095
0.6699900645085117
0.6971868325527429
0.6751255822455013
0.672455237194493
0.6947065148495614
0.7030614413648814
0.6667754720778563
0.6980856070767417
0.6850391500949079
0.737094877108743
0.676419269882359
0.7184302184544349
0.7288591016729752
0.6813631582265107
0.6543912127834949
0.6801512228321979
0.6473312128878901
0.6785919165048188
0.6780712273375119
0.7003435179966812
0.6764275702531781
0.7055130193983548
0.6801037708439936
0.7179148914803787
0.664744106022467
0.7000157346387451
0.6832138670805149
0.6683159807387211
0.708209244003163
0.6925264014628427
0.6776055307040433
0.7162270476915683
0.7043411099079641
0.6698775125269841
0.6888642400777002
0.6750521666003234
0.7130296405719749
0.7124319028012037
0.7196363576898948
0.6587574455366677
0.6664122090109228
0.6814329421501235
0.6836398963799549
0.6825498466806916
0.7056172593427896
0.6927844042835444
0.6986382306806385
0.684529394946626
0.7213835255988046
0.6960945226056946
0.6819121342726512
0.7009237149752539
0.6750403132476563
0.681802705096004
0.7189088103032651
0.6915165066547361
0.7259735346604033
0.71003580852014
0.7042484089573747
0.6747738959030515
0.7005535868990411
0.6889596507460365
0.7242685455645197
0.6854958505039443
0.6650487370192413
0.6837124844661329
0.7125718213739898
0.6917616348329778
0.6799918872638732
0.6857635577779171
0.6991877574598985
0.7306123257261625
0.7175777898769191
0.6855093457997189
0.6742287870844902
0.6906888416635656
0.6804738032190084
0.7295661384030805
0.7355756544753757
0.672357759123187
0.6819030996073534
0.6961368179965145
0.6761361960034641
0.7335475141764932
0.7022688947787797
0.6735562116032962
0.6928757122837422
0.6582854486196115
0.6956597447910249
0.7174807049511608
0.6684801833782611
0.6921756226594696
0.687811086663599
0.6757839639638195
0.6805153997846726
0.6810427720196188
0.7263805164368068
0.6708632031066184
0.6956700334170249
0.6853607143697269
0.7099852602739308
0.6794916384265306
0.7008334659166452
0.6831631811316463
0.7041565225403691
0.6620746857249329
0.6958161517091244
0.6836567835689878
0.7027631978595218
0.6618106845543088
0.6684367732893813
0.6602207033378008
0.6696341644798973
0.6768592990420393
0.6947800294087044
0.6902717854297772
0.697482255198109
0.7228327800464155
0.6957160296169366
0.6852370635918518
0.7224064035168485
0.7062833603959487
0.67060925798238
0.6825817086428346
0.6814942930009488
0.6842199698231036
0.6982825270367455
0.7478459660532422
0.6720133368956483
0.6858921671378281
0.7185708919958935
0.7119094543158766
0.6991504726452537
0.7039498277708606
0.6854768829639557
0.6798527825237509
0.6713526588214399
0.6838981465425048
0.7032393387032584
0.7282245831702362
0.6594410986970045
0.6992857124476581
0.729281836020514
0.6804380476460252
0.7251920568984044
0.6810193824404407
0.6734018667209071
0.7308139071194116
0.7086537922150633
0.6942719729129843
0.7229939828111271
0.705535694147375
0.7093544985299665
0.7011308565119572
0.7298492638489702
0.6824774057537307
0.6821197625341306
0.7066116260499656
0.672740753079127
0.6868112056523769
0.6593630043867281
0.6837559590821977
0.7207429659440099
0.7152974431179148
0.6778696759776902
0.6784026294014458
0.692776408143338
0.672869117679769
0.7155712521664163
0.7253632145554019
0.6749482244759819
0.6987796298394265
0.6987535856700808
0.6914742446873823
0.7058391150779139
0.7020703156261128
0.7305083332358558
0.6718196070945359
0.7147516008023066
0.6871691065561877
0.7230441386155607
0.6667843415525467
0.6832966687676261
0.692801865331368
0.6685664157040031
0.6646491322774779
0.6957940414876056
0.6738718071975702
0.7109156418701884
0.6880344435905309
0.6945398266772547
0.7148592794152806
0.6822017755488418
0.6646090307716631
0.7284988815304565
0.7041383873399891
0.6715152801647226
0.7291001083241687
0.691149228535498
0.7115727239041566
0.6908299164001038
0.7096764539987109
0.6955036221481382
0.6677128562428095
0.6818694217559781
0.697404443758806
0.669456944510938
0.7067250030638084
0.7156393658853364
0.7004498192194298
0.6950221539474762
0.6972286805639787
0.6840408071810586
0.6997339916003378
0.6524719414664827
0.6498082150708404
0.6813152107764777
0.7049312005988122
0.7141377022193472
0.6855759525806263
0.6519545507311835
0.6973881733045688
0.67974685691881
0.6577128978482051
0.71853513730953
0.6432772395483891
0.6555923995990478
0.7101529915251903
0.6643984445564082
0.7218919863600691
0.7188770702745051
0.6709963477523258
0.6988866521325036
0.6930070504337885
0.6904112939336721
0.7185022142193586
0.7106178146705464
0.6813224961554152
0.738511117437128
0.7164198714918676
0.6646656840765726
0.7157528323379536
0.6813127211215155
0.6723653669503094
0.7078641305317804
0.6856744736266314
0.7052418174239813
0.6897653234091009
0.6895305773594049
0.7086492080688878
0.6758607606224564
0.7158478229488229
0.6842051154447133
0.6911598866097688
0.7013173668646833
0.7263533024792423
0.700997231885709
0.6795801851860239
0.7037781695699974
0.7070611059472022
0.6812774426115168
0.6668535392053879
0.7210620568318608
0.6907898466569385
0.657081840089525
0.6725109373635153
0.700524120897303
0.677937920792564
0.6873524141820202
0.6949657197493666
0.6805109413272035
0.7455928962861685
0.6940480188918717
0.6511993710369848
0.6766562538745476
0.6908590740037811
0.7288920333232711
0.711753130798125
0.7189955999075697
0.725582148021063
0.6847548438160938
0.7317163770739198
0.6977246930609804
0.7007513231288435
0.6956655233869777
0.6885056828931844
0.7141807767885561
0.6772560136378608
0.6576086236671794
0.7073472563217329
0.7072538572897739
0.665016723728264
0.6807371822259534
0.7071318609457424
0.6476480544481601
0.677592456377537
0.7269612532721915
0.6762645321169644
0.6940428766070741
0.6604449521436645
0.6976504744762767
0.677600753266833
0.7568129149568196
0.6867498045177877
0.7002914348943228
0.7095824437050965
0.6845567835821929
0.7314924545497362
0.6601199097700468
0.7118052863286929
0.7090691855959691
0.7077099913462258
0.677131301185868
0.6482622421304304
0.688071587016041
0.7238982274572782
0.7075263721112937
0.7249464052506399
0.7163377067313342
0.721950110834478
0.7094802546273892
0.7175546679123562
0.7156107947981326
0.6939844533945196
0.6900806093741477
0.6941843520977766
0.6750044068971863
0.7270651066345718
0.7007304203242637
0.6883888430563836
0.6676894651226649
0.7128666446992011
0.7275219974120547
0.6911420834436331
0.6909048156452068
0.6929635702344215
0.7086279344491468
0.6710145763379974
0.6572379635784774
0.6899811807562386
0.7130686016287474
0.6734901397525076
0.6989732187453725
0.6901945196807143
0.6989835008654777
0.7225313491148296
0.6956690540498881
0.6785243055622675
0.7112955492929961
0.683418709473968
0.6957099457436673
0.6816260125558893
0.7260344924994135
0.7210126496129289
0.6586097985817068
0.6732565039885268
0.7066400327731013
0.6951931019683742
0.6588582487405492
0.677145168079375
0.7087513547465316
0.6689898502515128
0.6739796830963374
0.6659272136714196
0.667586224058497
0.6660644950618962
0.6937777148720732
0.6909639489298894
0.6790720686678272
0.726246002595303
0.692360461180043
0.7074466622574387
0.6950325553508436
0.6850648053993279
0.685648823148366
0.6702999790562785
0.6923508751061322
0.6791464976637183
0.7171522688723302
0.6682932697968673
0.6877593537488722
0.7188666639029696
0.7001184785107657
0.6898640823856965
0.7193821221844661
0.6997066546218914
0.6924698851997899
0.6638391005229377
0.7153987359751388
0.7335925388311934
0.6872805517313414
0.6996556449547428
0.6958390624389968
0.6979400252759987
0.7125655375273945
0.7131812284485463
0.6845614577121744
0.6766615796852794
0.6566184425225942
0.7113253011361671
0.6916333851536569
0.6711022438170497
0.7286225647828809
0.6589507294929804
0.7210550372843937
0.7095455762992621
0.6873955070389878
0.7147331209424208
0.7160761551339001
0.7081049966771049
0.6542746304204134
0.685646745102442
0.674330147162621
0.7020732244257905
0.6522509537408732
0.7231006208984305
0.7103005737211446
0.7121701001832198
0.6825118699646449
0.7188528066721431
0.7197564871050771
0.6797977897866425
0.7362531105921045
0.7278187536056875
0.6768903993074884
0.7345933231733073
0.6945863127692837
0.7222480949422337
0.7279449056289582
0.7089443132477695
0.7037561811711244
0.6691601246563748
0.6965582216407259
0.6930042621072412
0.6913989493181435
0.6964065894171729
0.6683386265685357
0.7146725226956202
0.686113544833961
0.700026091476613
0.6972309393685977
0.6608426263906546
0.660381224934881
0.6777035482718046
0.6897884029105625
0.6976887252369278
0.6819380764423185
0.7012603924416936
0.7445696859176214
0.7128054201583933
0.6916579646128851
0.743682973187232
0.6615898605341183
0.6964784766931463
0.6548587662645018
0.7347500886312137
0.733919787398308
0.6873485540093927
0.7005775271821167
0.7005255020612215
0.7152776853045841
0.6914463841889342
0.7175886847276651
0.6973790777798191
0.6964934847171982
0.6846171156132854
0.664538922561764
0.7029642262817387
0.6511753758663122
0.6889044285739488
0.6854810748328897
0.6799389249224614
0.7038001379822673
0.704341077315856
0.7065793726595558
0.7122919570896419
0.6623338854499586
0.7113694227805606
0.6742137199496836
0.72305001825858
0.6693051368825225
0.702638253204349
0.7210592011083543
0.6737637141541479
0.6702634188302606
0.6613118438746926
0.6868450954760653
0.6825190761773932
0.695290428367426
0.7433046909560516
0.6871934753380429
0.6966957943768654
0.6891531431395629
0.7107360188935491
0.7133722290002444
0.7055259532217109
0.6636325497376493
0.7004754062448605
0.710189813908011
0.683478467135082
0.7007915324026646
0.7349622895409605
0.7454479552085378
0.6894332996906414
0.6953142484013887
0.689346603066621
0.6828510004084971
0.7021348512468774
0.6781330965231581
0.6836414868403468
0.7044081316594963
0.7360838047372283
0.6747331985502627
0.698633036972244
0.6693227268973413
0.6670564190828919
0.7197525256692126
0.6652006271912353
0.6937263755656019
0.7335106491092532
0.7219798712410476
0.6837056224525223
0.7118603229508711
0.6554798927920891
0.7018017907461565
0.7013998726590478
0.6672916031953807
0.7220242052303615
0.7241545281000935
0.6956726261703934
0.7028029590120614
0.6669796796579822
0.6838984714783126
0.6821618917585429
0.6739036479354724
0.6923891594289323
0.7117265335421302
0.6599974846356625
0.6717066491602681
0.6931769312313253
0.6895426459729599
0.7128340451557973
0.724936285095764
0.7050465872024874
0.6797517367178038
0.6728215188800438
0.6998318787586738
0.7031934502215513
0.6643616120302376
0.693035677022583
0.674883357649184
0.7190087618167025
0.7370460728436244
0.6820914883892418
0.7157095067659625
0.7037936013870105
0.7056642624107969
0.7025304312767354
0.7365969112771609
0.6998928453830128
0.7005634910880086
0.686795356968789
0.7204240447785595
0.7012910666070473
0.6871655045924046
0.6779854029430497
0.7034981646739206
0.704092942546485
0.7289541265555174
0.6654810823696308
0.7360259118040527
0.6747697975730711
0.7050148924412517
0.7243310609843108
0.698591534296333
0.6775417371622502
0.6935439716041983
0.6828264452065999
0.6768757554120977
0.6973654132051897
0.730781135268064
0.6813900680835464
0.6633108122784028
0.7070886293299311
0.6712216382840964
0.735730742794287
0.7055807717491235
0.6958037972456694
0.6462055538236313
0.7066318351781962
0.677026053090274
0.69757881393752
0.6578693508158634
0.6830079711125405
0.6277496512261438
0.690029868852941
0.6904854087854949
0.6806602742387933
0.718471218494941
0.7116912058865676
0.7020898286768094
0.7325717340177945
0.7019557792876788
0.6674316415370206
0.7134067635714537
0.6955501877694693
0.6925611289790335
0.7197724964090665
0.721980931233704
0.6713296326356146
0.6926732162796284
0.6872273335377397
0.695953054048517
0.6921696245004678
0.6805790951370025
0.726951983242081
0.6672387270890366
0.70496956550764
0.7185073226798538
0.6679481163789935
0.6935477973889873
0.6811034671945777
0.6901193693794846
0.69695861222904
0.6916602472906754
0.6873489011696179
0.7168748633972853
0.6987966047378401
0.704044856830225
0.6592109112595317
0.7041038165382559
0.6975665630109921
0.7199761764804964
0.6981312912746529
0.695160545767617
0.6702061673781542
0.6595072570313104
0.7096322794601218
0.6411259117297119
0.7123784363221621
0.6651665976532277
0.7218299596177716
0.6956254628931005
0.695643181879111
0.6459238450299543
0.7019778470677097
0.6656113018222949
0.7216342327708481
