0.0,0.0
1.0,0.0
2.0,0.0
3.0,0.0
4.0,0.0
5.0,0.0
6.0,0.0
7.0,0.0
8.0,0.0
9.0,0.0
10.0,0.0
11.0,0.0
12.0,0.0
13.0,0.0
14.0,0.0
15.0,0.0
16.0,0.0
17.0,0.0
18.0,0.0
19.0,0.0
20.0,0.0
21.0,0.0
22.0,0.0
23.0,0.0
24.0,0.0
25.0,0.0
26.0,0.0
27.0,0.0
28.0,0.0
29.0,0.0
30.0,0.0
31.0,0.0
32.0,0.0
33.0,0.0
34.0,0.0
35.0,0.0
36.0,0.0
37.0,0.0
38.0,0.0
39.0,0.0
40.0,0.0
41.0,0.0
42.0,0.0
43.0,0.0
44.0,0.0
45.0,0.0
46.0,0.0
47.0,0.0
48.0,0.0
49.0,0.0
50.0,0.0
51.0,0.0
52.0,0.0
53.0,0.0
54.0,0.0
55.0,0.0
56.0,0.0
57.0,0.0
58.0,0.0
59.0,0.0
60.0,0.0
61.0,0.0
62.0,0.0
63.0,0.0
64.0,0.0
65.0,0.0
66.0,0.0
67.0,0.0
68.0,0.0
69.0,0.0
70.0,0.0
71.0,0.0
72.0,0.0
73.0,0.0
74.0,0.0
75.0,0.0
76.0,0.0
77.0,0.0
78.0,0.0
79.0,0.0
80.0,0.0
81.0,0.0
82.0,0.0
83.0,0.0
84.0,0.0
85.0,0.0
86.0,0.0
87.0,0.0
88.0,0.0
89.0,0.0
90.0,0.0
91.0,0.0
92.0,0.0
93.0,0.0
94.0,0.0
95.0,0.0
96.0,0.0
97.0,0.0
98.0,0.0
99.0,0.0
100.0,0.0
101.0,0.0
102.0,0.0
103.0,0.0
104.0,0.0
105.0,0.0
106.0,0.0
107.0,0.0
108.0,0.0
109.0,0.0
110.0,0.0
111.0,0.0
112.0,0.0
113.0,0.0
114.0,0.0
115.0,-0.08578692928769474
116.0,-0.002508685107598274
117.0,0.2861545358055929
118.0,1.4823727870511365
119.0,2.153578073508273
120.0,2.1319150494890193
121.0,1.9682928673091793
122.0,2.5985786328388487
123.0,4.313616455039123
124.0,4.607953391550093
125.0,3.274536922638844
126.0,2.0273619829122174
127.0,2.322783539590581
128.0,2.5942987656835137
129.0,2.3855570782723703
130.0,1.8986407758424872
131.0,2.8497463451949807
132.0,3.159316048100696
133.0,3.370619735616589
134.0,5.086880115805464
135.0,4.858281949510135
136.0,4.3921506325942055
137.0,4.601947880300034
138.0,5.511273719348776
139.0,5.615739608749963
140.0,5.45313365229593
141.0,5.022636113792763
142.0,4.381464111337862
143.0,3.6011087616397446
144.0,3.705155889627838
145.0,3.2123648387402963
146.0,1.6966195038321896
147.0,0.05577032790527141
148.0,0.49759852800432375
149.0,1.0460813801421966
150.0,0.25948051282541407
151.0,1.063624778357059
152.0,0.3718415248580822
153.0,0.6501692019595535
154.0,0.5421429387237828
155.0,0.8564843491155996
156.0,0.9908530447205344
157.0,0.9233282880622521
158.0,0.7029704017705929
159.0,0.7571258356502168
160.0,1.3670847488325482
161.0,2.3820273835409225
162.0,1.6993397155417782
163.0,0.46488288650206977
164.0,0.9833157672507585
165.0,1.676615979627701
166.0,1.0686364703140676
167.0,0.6026151502331959
168.0,1.0338893568273737
169.0,1.074062509052119
170.0,0.9078815895602645
171.0,1.6345448591915297
172.0,2.311422125311363
173.0,1.3123373290511866
174.0,1.5768977678503473
175.0,1.4561553653194628
176.0,1.6874468932370532
177.0,3.0815260077410604
178.0,2.9242785757645477
179.0,2.684603519392437
180.0,2.634234859529434
181.0,2.7117190316144066
182.0,2.5515892673415275
183.0,3.54795289583054
184.0,4.025422811058815
185.0,3.580680140130497
186.0,3.2280830224376347
187.0,3.454615560202352
188.0,2.9547619445604525
189.0,2.176714314862455
190.0,1.7587805959802387
191.0,1.2592624777033874
192.0,0.625343775066
193.0,0.5450822560001582
194.0,0.7527662951740478
195.0,0.5529400839513352
196.0,0.16857334742751526
197.0,0.2862216305303892
198.0,0.2508620516830211
199.0,0.014772744415869097
200.0,0.3556483470772123
201.0,0.8178233847536656
202.0,0.6292380862735186
203.0,0.4074974608174543
204.0,0.7127778076515832
205.0,0.3971207656065907
206.0,0.12023332888842994
207.0,0.21755292702481796
208.0,0.19737853525430643
209.0,0.3160633962132946
210.0,0.502233345360757
211.0,0.7782491176393131
212.0,0.4068727483582263
213.0,0.13471329217593253
214.0,0.7536542271109171
215.0,1.1513535806601687
216.0,1.0119263133082799
217.0,0.972204479377244
218.0,1.4396541846621165
219.0,2.11576754956931
220.0,2.51185552381322
221.0,2.4046901233379083
222.0,2.2536910006667394
223.0,2.5004532547558536
224.0,3.2549800538501423
225.0,3.784774563717488
226.0,3.375753410053494
227.0,3.9766820115061265
228.0,4.012478273002799
229.0,3.8133405374736107
230.0,4.049774728958732
231.0,5.222645500249359
232.0,5.847672730797334
233.0,6.397628396862073
234.0,6.8424357781580225
235.0,6.651559912122812
236.0,6.28574260596633
237.0,6.372165310539223
238.0,7.212494182277488
239.0,8.663847706086836
240.0,8.722156733524503
241.0,9.099031142027618
242.0,10.004931994966098
243.0,10.720955359686528
244.0,10.388015515183207
245.0,11.06166119871753
246.0,12.008425433088592
247.0,12.894746320384254
248.0,13.862437702413056
249.0,15.076131380384519
250.0,14.809852665474796
251.0,14.282816540121228
252.0,13.557191820024144
253.0,11.934502071704884
254.0,9.520032930172148
255.0,6.931598753388057
256.0,5.067254144205779
257.0,3.9655102860060225
258.0,2.769900381444172
259.0,2.200399719135316
260.0,1.857804324955505
261.0,1.3927701754362845
262.0,0.6419681289604887
263.0,0.47771810343314175
264.0,0.76583537005917
265.0,0.7267655487292194
266.0,0.5476103161900806
267.0,0.79369193519258
268.0,0.1145701279668763
269.0,1.1571517927377386
270.0,1.9468713446724353
271.0,1.4997255412891797
272.0,1.6629631275328445
273.0,1.2250059656728687
274.0,1.1304679882061952
275.0,1.2609195728780351
276.0,1.2228178981821143
277.0,1.748133845847503
278.0,1.6605928175568077
279.0,1.1187452151022386
280.0,0.5754444653197294
281.0,0.7006286967563237
282.0,1.9374611522742093
283.0,2.634386852740713
284.0,2.6034031882319577
285.0,2.46810611381357
286.0,2.8771004034212018
287.0,2.5262273227486376
288.0,3.312262254203267
289.0,4.047860454779352
290.0,3.5458616418203475
291.0,3.9560637781547596
292.0,4.73658493487257
293.0,5.761937186642087
294.0,6.5762321172052784
295.0,6.827754627931173
296.0,7.06956312445248
297.0,7.433182844387335
298.0,8.165905983072124
299.0,8.704694904340382
300.0,7.729342396429988
301.0,7.8188732524760205
302.0,8.263442485052805
303.0,8.479914412420706
304.0,8.344869662311195
305.0,8.896327973331397
306.0,9.564879985112203
307.0,9.763122279404982
308.0,9.897212866087996
309.0,10.761979324806552
310.0,11.763164952103386
311.0,12.717563439307035
312.0,13.776842125762272
313.0,14.715402766113113
314.0,15.307021297448653
315.0,16.58775435654083
316.0,18.725988600162808
317.0,21.011639605645335
318.0,23.427726883935495
319.0,26.389625679313152
320.0,28.916900820042077
321.0,33.22898128617497
322.0,38.48168153095992
323.0,43.882877430422475
324.0,49.39927136313544
325.0,52.663928980768304
326.0,53.07776235561724
327.0,50.05536679533804
328.0,43.932327482885526
329.0,37.12415865041723
330.0,30.251152999114172
331.0,23.612317697151695
332.0,17.648081081049398
333.0,12.794937160797334
334.0,9.091286719295374
335.0,6.744647890023182
336.0,5.681163779231904
337.0,5.185236437924363
338.0,4.191462125221789
339.0,2.6989130625944395
340.0,2.2747237646184275
341.0,1.9742793867356965
342.0,1.3431813349479325
343.0,0.9199669880832263
344.0,1.3555924087176192
345.0,0.3776639758535498
346.0,0.03773834627248897
347.0,0.48042227089163614
348.0,0.33528693782802776
349.0,0.8040346793130689
350.0,1.0703796321676597
351.0,0.22732366617515473
352.0,0.48520532380119463
353.0,0.3711914623875665
354.0,0.6132384873727978
355.0,0.15600720461652967
356.0,0.2975200218374443
357.0,0.06626977946629381
358.0,0.3019559900227721
359.0,0.3199180286423064
360.0,0.2050193572724479
361.0,0.03283591638449442
362.0,0.15246882210821858
363.0,0.06986122434299376
364.0,0.5454332809605217
365.0,0.15951524461492259
366.0,0.5283142969467572
367.0,0.5208901326741638
368.0,0.324737309141206
369.0,0.15118180393054043
370.0,0.3444226759155094
371.0,0.3139502646111047
372.0,0.4625208948861066
373.0,1.1604009381335716
374.0,0.6496609167589471
375.0,0.3075245733343843
376.0,0.3793102940022392
377.0,0.6429063362685833
378.0,0.9510123000437771
379.0,1.9057074114742987
380.0,2.1626507430893303
381.0,2.691879978970276
382.0,3.5113463301511723
383.0,3.404149725120054
384.0,3.633014191351035
385.0,4.769520119199387
386.0,5.473729832096579
387.0,5.851862948143545
388.0,6.74309864042042
389.0,6.917471786842154
390.0,7.711298984737522
391.0,8.821921958182266
392.0,9.9119938504804
393.0,10.9582098778312
394.0,12.505276284547445
395.0,15.200599916804098
396.0,17.960125526806582
397.0,20.590300334144914
398.0,23.52374678522473
399.0,26.806921401960768
400.0,29.187735547763406
401.0,31.382172555759812
402.0,32.41642081160602
403.0,30.248181022676164
404.0,25.664439110936854
405.0,21.485617624370075
406.0,17.844255858327067
407.0,14.935387752163319
408.0,12.5944064138274
409.0,9.526723016703583
410.0,7.15236832580623
411.0,6.363555727492513
412.0,5.516388142501722
413.0,4.033685667310623
414.0,3.93451775775088
415.0,4.065916565819968
416.0,4.578654379875022
417.0,4.783288945408813
418.0,4.330112345560677
419.0,3.8514826258622685
420.0,3.584969471567909
421.0,3.5905059341257637
422.0,3.5530022014476033
423.0,3.5299839890536395
424.0,3.6800109663753346
425.0,2.9391617991679553
426.0,2.487335340497228
427.0,2.71207965162595
428.0,2.9813691182528355
429.0,2.678946286452159
430.0,2.024834622387598
431.0,2.680395391786863
432.0,2.833010973943327
433.0,2.937778347050972
434.0,3.4185866008987014
435.0,3.0023568854870915
436.0,3.9358319861173054
437.0,3.6952665695441373
438.0,4.019561667939085
439.0,5.66745171377403
440.0,6.1578521926419025
441.0,7.189921697391437
442.0,8.04605317219962
443.0,8.366580694594322
444.0,8.691872277172882
445.0,9.747384026879315
446.0,10.161229845720678
447.0,9.938586196140403
448.0,8.977168263364238
449.0,8.304214804064436
450.0,8.397880787262139
451.0,7.15078292685881
452.0,6.139467359740493
453.0,5.382902388469342
454.0,5.208628399927806
455.0,5.18096686237135
456.0,3.5136467667808033
457.0,3.227000297892447
458.0,2.7872797552979636
459.0,2.087666630383105
460.0,1.7208043534257214
461.0,1.9271546243497792
462.0,1.793161293536613
463.0,1.9604142193869607
464.0,1.8072578231491
465.0,1.6294356397983798
466.0,1.6861999591240246
467.0,1.39330802238609
468.0,0.9818351875190819
469.0,0.9189389013669371
470.0,0.29663746324643026
471.0,0.25768583009692025
472.0,0.7820616199948447
473.0,0.14485586907510392
474.0,0.6557079520445602
475.0,0.5876632957225756
476.0,0.1269389981566623
477.0,0.06664107925061383
478.0,0.2094643195661296
479.0,0.3575183561964659
480.0,0.14233987693965244
481.0,0.18801052057431333
482.0,0.13659723610589514
483.0,1.0514567283354703
484.0,0.3159499413070556
485.0,0.19899721797885125
486.0,0.06328528701895259
487.0,0.3228975506607374
488.0,0.5568229927392938
489.0,0.5334150925484956
490.0,0.686572060262917
491.0,1.0366625141364456
492.0,1.4954849782304176
493.0,1.4908232289368848
494.0,0.5190806279754933
495.0,0.5415125346357129
496.0,1.178590194275979
497.0,1.4484401845611394
498.0,1.4312080833197325
499.0,1.514783886565616
500.0,1.7248740221403627
501.0,1.6777017940649648
502.0,1.4945988893460835
503.0,1.818240784302861
504.0,2.251901608468464
505.0,1.85609929156667
506.0,1.889683167661629
507.0,2.4116883586056015
508.0,2.7442406815978337
509.0,2.6978721362298064
510.0,2.7011077944941917
511.0,3.4047251612261884
512.0,3.4129580949340133
513.0,3.3558204233263287
514.0,3.866765484131512
515.0,4.542014256431512
516.0,4.897792710757162
517.0,5.629580060534279
518.0,5.601719068652828
519.0,5.813949196952351
520.0,6.696588679175066
521.0,7.50230613740255
522.0,6.817395162092577
523.0,6.491978922907645
524.0,6.839083954211402
525.0,7.9589891717018135
526.0,8.46541971838917
527.0,8.048417533490182
528.0,8.624589634312622
529.0,8.965829433564815
530.0,8.864079133569012
531.0,8.279542314347035
532.0,8.31000985846482
533.0,9.394150114481768
534.0,9.113700319549798
535.0,9.153540349267029
536.0,9.078627400149124
537.0,9.113700445657418
538.0,9.012459735111666
539.0,8.201407307581926
540.0,8.033311316862958
541.0,7.490631490567742
542.0,6.77176653230248
543.0,5.977299671558197
544.0,5.591675919981255
545.0,5.77092620375044
546.0,4.974786365634
547.0,4.650991986669077
548.0,4.0131107914634585
549.0,3.376277874808239
550.0,3.0776095995886683
551.0,2.7938871090058024
552.0,3.3688727384425494
553.0,2.9670266890079007
554.0,2.2353414428433984
555.0,2.043580294571779
556.0,2.1297304212061885
557.0,1.5961184117562752
558.0,1.7540370540388068
559.0,1.36680527230369
560.0,1.5445615242464628
561.0,1.6851046594827948
562.0,1.294940026981792
563.0,1.5832999153782268
564.0,0.8036600844751903
565.0,1.2884134076638265
566.0,1.5698564262272834
567.0,1.2410763396312579
568.0,1.256194691566066
569.0,1.8738700888643947
570.0,1.7242776110647748
571.0,2.061479459054457
572.0,2.6815744781124238
573.0,3.0150293849717107
574.0,2.918091275055353
575.0,2.658015328151296
576.0,2.5836282392207424
577.0,2.873037583425194
578.0,2.2593171986200273
579.0,1.7828934307504483
580.0,2.4951568760922025
581.0,2.0683342044199344
582.0,2.4965590169155374
583.0,1.9612331401211083
584.0,1.2832341930738889
585.0,1.2082276531203149
586.0,1.6694711221183125
587.0,2.10907628910383
588.0,0.5133491905465943
589.0,1.0516789167029736
590.0,0.8592704418629199
591.0,0.34438251323132574
592.0,0.8331813718359977
593.0,0.7273095193394346
594.0,0.32929660202373834
595.0,0.10901861080926595
596.0,0.46529315857319753
597.0,0.2405636140057737
598.0,0.7500208900932831
599.0,0.2542881565901701
600.0,0.2656089309741544
601.0,0.1160022131749185
602.0,0.19693959835835276
603.0,0.25395975994862274
604.0,0.310861736494495
605.0,0.7681115114652873
606.0,0.4981879427079747
607.0,0.2035699055343346
608.0,0.4160516399721967
609.0,0.18700143795253074
610.0,0.12348007141467338
611.0,0.07993262567979441
612.0,0.6139076443679395
613.0,0.6134517135727158
614.0,0.6714454134226484
615.0,0.9866004619304205
616.0,1.4028360869702245
617.0,1.7415559298943022
618.0,1.9418933656954547
619.0,1.8438586127435468
620.0,2.071298347266814
621.0,2.0927940943021315
622.0,1.582875124067942
623.0,0.9164698901512388
624.0,0.7367374289098945
625.0,1.0292164628477973
626.0,0.37343815852823053
627.0,0.24494004449055207
628.0,0.06456507217075397
629.0,0.25944390256491784
630.0,0.7216486441631103
631.0,0.29411257681123193
632.0,0.2699439158976577
633.0,0.10484755940536883
634.0,0.1776645315679107
635.0,0.2203256162182354
636.0,0.3390080692323854
637.0,0.24875257434674464
638.0,0.44994011591066047
639.0,0.40090048849723503
640.0,0.6422200819439186
641.0,1.0646855423376467
642.0,1.3476798638071774
643.0,1.445012003522602
644.0,1.5398774847941663
645.0,2.1478702639441902
646.0,1.9360451812251915
647.0,1.9616546799614398
648.0,2.20637970467727
649.0,1.9452242173400056
650.0,2.0295346987932614
651.0,2.429673379828611
652.0,2.753817010442993
653.0,3.109247127535646
654.0,2.898134249410949
655.0,2.5573988407946877
656.0,3.63029376563153
657.0,3.4409954856226217
658.0,3.7414133695692016
659.0,4.711177368245444
660.0,5.032984024941608
661.0,5.4878722711964985
662.0,6.614628572693074
663.0,6.632397804000341
664.0,8.15108756684371
665.0,9.3714027444507
666.0,10.833244451315323
667.0,12.250653904557192
668.0,14.154253401959831
669.0,17.388530640655986
670.0,20.074457734194247
671.0,23.54675017652669
672.0,26.648991149663747
673.0,31.32536262745492
674.0,36.27323805145042
675.0,41.21566946448796
676.0,48.25703494012608
677.0,53.49934891377687
678.0,60.64988302405752
679.0,71.59745735135569
680.0,84.20483114887016
681.0,99.04228754981747
682.0,117.97998634186699
683.0,140.05309179493722
684.0,164.1766433471977
685.0,192.31763632927093
686.0,218.87380096211817
687.0,233.85050695408768
688.0,232.1293195431272
689.0,215.2079890430012
690.0,189.4238342068075
691.0,158.7506859828015
692.0,127.40500393747631
693.0,100.86096207055361
694.0,80.01937484249332
695.0,64.32574508149669
696.0,53.463919567990246
697.0,44.30718880813997
698.0,36.83831280848055
699.0,31.17382122966895
700.0,27.17540824916403
701.0,23.872509097450855
702.0,20.580925116368327
703.0,17.784016881843943
704.0,15.096195358427703
705.0,13.664092033142536
706.0,12.03583545770913
707.0,10.486138406817055
708.0,9.516465163309043
709.0,8.736690062388893
710.0,7.0813257792985596
711.0,6.921379694897758
712.0,5.838490847448352
713.0,4.778885259962414
714.0,4.547972558998429
715.0,4.380272261185573
716.0,3.742606791185047
717.0,3.318680271747749
718.0,2.829373322202164
719.0,3.0634333926805404
720.0,2.921136495527074
721.0,2.4493477882086516
722.0,2.2267133442984455
723.0,2.1461164677253284
724.0,1.559959271945301
725.0,1.595942984242495
726.0,1.884082956598953
727.0,1.4191167854440008
728.0,1.1450673805468183
729.0,0.8637983738336694
730.0,0.7074607962471484
731.0,1.2571368796678404
732.0,1.07672301978285
733.0,0.6082626454837262
734.0,0.20501286379171632
735.0,0.2049086344903279
736.0,0.17718601023562908
737.0,0.2117781758791355
738.0,0.668387723114586
739.0,0.4138199890351596
740.0,0.32509444800916576
741.0,0.3813913991714929
742.0,0.17842384072889578
743.0,0.12448428396487653
744.0,0.23207553327999156
745.0,0.15213196545201005
746.0,0.34624750614543365
747.0,0.1214672165629822
748.0,0.1672092393391934
749.0,0.03142343172325644
750.0,0.025789823068442356
751.0,0.29089176552058604
752.0,0.48667494825354535
753.0,0.027955165675591396
754.0,0.2579516168642963
755.0,0.07135767140859649
756.0,0.6358432067305965
757.0,1.3348382347469723
758.0,1.329080305300956
759.0,1.0225324541274081
760.0,1.1506776075731762
761.0,0.48788958044026043
762.0,1.2240503612719738
763.0,0.80360952663625
764.0,1.7341652689271836
765.0,1.6886760257304976
766.0,1.0364261955996694
767.0,1.3487336946358202
768.0,0.9565272368497109
769.0,1.1757929253567623
770.0,1.145304227649687
771.0,0.8537725487158929
772.0,0.5036476459677584
773.0,0.596544114681437
774.0,0.6534477630747814
775.0,0.04555121370871252
776.0,0.18189560443148317
777.0,1.1501786803976226
778.0,1.066957116727596
779.0,0.787329145546253
780.0,0.741582244871863
781.0,0.8635763510657902
782.0,0.9480596877477451
783.0,0.784546179217573
784.0,0.7439833770879782
785.0,1.5023038841341052
786.0,0.9648818023805806
787.0,0.07517703947792878
788.0,0.07094847371965912
789.0,0.2771693679943948
790.0,0.22164023107862277
791.0,0.10891992112222874
792.0,0.36712914634392996
793.0,1.0324066556960412
794.0,1.0900989935818413
795.0,0.6861995898017187
796.0,0.09168482341805442
797.0,0.05022370583195211
798.0,0.37083328021764894
799.0,0.38835334874448985
800.0,0.4570920402222212
801.0,0.4263795725986838
802.0,0.5481930941288955
803.0,0.2412179015730705
804.0,0.13977573210794733
805.0,0.5720856528551106
806.0,0.6154276677225982
807.0,0.02290718867207692
808.0,0.11279436913319675
809.0,0.023156854762007725
810.0,0.18453811392484698
811.0,0.09900307700799929
812.0,0.0700274023169608
813.0,0.4554667806914194
814.0,0.5326702576817017
815.0,0.011475357909503589
816.0,0.7006753979107906
817.0,0.5480002036526204
818.0,0.22075335569142787
819.0,0.36490860282716336
820.0,0.4095631929491211
821.0,0.08926431238820699
822.0,0.4824888514150041
823.0,1.1246665292460973
824.0,0.10190125180017544
825.0,1.2799001881270138
826.0,0.46462942021924847
827.0,0.4762157045966136
828.0,1.050167684144102
829.0,0.6369602619247411
830.0,0.22703796312963373
831.0,0.010883930029204176
832.0,0.47547615864129267
833.0,0.8516214185447505
834.0,1.1122119587729518
835.0,0.2732046063903079
836.0,0.08583525597257172
837.0,0.38126588155236196
838.0,0.7309342437152003
839.0,0.8898564081930685
840.0,0.7280620267598781
841.0,0.37554703690182345
842.0,0.5289343251995344
843.0,1.013223442526457
844.0,1.3080300145268908
845.0,1.4065621203166359
846.0,1.4523617105768933
847.0,1.0908430427149487
848.0,1.5763379470904082
849.0,0.9473715588620661
850.0,1.3431062091942472
851.0,1.5598504292901538
852.0,1.1808573801840332
853.0,1.0116192910418431
854.0,1.1423527414272188
855.0,0.9395396130405678
856.0,1.2530095052228059
857.0,1.0544526429950187
858.0,1.2135948164453496
859.0,0.9813892359190348
860.0,0.7850204659659459
861.0,1.1488755108038393
862.0,1.5291762045262185
863.0,1.3518895439871217
864.0,1.2695470635383128
865.0,1.310972392161523
866.0,0.8569692451301582
867.0,0.7628404595487559
868.0,0.9670657800016926
869.0,1.0315034078642065
870.0,0.9781465256278459
871.0,0.8515667124992772
872.0,0.6239558309038473
873.0,0.9956729870168518
874.0,0.5638389769920363
875.0,0.8245673328866682
876.0,1.3219238942198124
877.0,0.7318533400394238
878.0,0.9187286719738968
879.0,1.5966866328192886
880.0,1.56406241277487
881.0,1.2767360340184932
882.0,1.3742199471040937
883.0,1.1706798744723836
884.0,0.6815963206679767
885.0,0.7277588411066354
886.0,1.013996430985875
887.0,1.017123228286129
888.0,1.3114746298397122
889.0,1.9244448354539507
890.0,1.0474403589165853
891.0,0.19712072432989464
892.0,0.9358900447668854
893.0,1.1776544155824542
894.0,0.9361403790891843
895.0,1.105910292134919
896.0,1.1488514066531275
897.0,0.9811146052402508
898.0,0.9676176841314833
899.0,1.1066056437273226
900.0,1.6288326550761691
901.0,2.0376332892208326
902.0,1.821690219781961
903.0,1.3674652590729102
904.0,1.303538716266263
905.0,1.672144597410011
906.0,1.942549440502036
907.0,1.8880399306993156
908.0,1.8996596633710812
909.0,2.150075539774029
910.0,3.127547330486723
911.0,2.968760257316286
912.0,2.4290370561401873
913.0,2.774826058881881
914.0,3.1334070868783437
915.0,2.9571957817112473
916.0,2.956949356415322
917.0,3.2409370465128213
918.0,3.1708679330973486
919.0,2.67719112358428
920.0,3.3401690999028975
921.0,3.8790681250694523
922.0,3.516948303605401
923.0,3.2217666795566253
924.0,2.931076897152634
925.0,2.6438887779978373
926.0,2.643356751456197
927.0,2.8550347367695377
928.0,3.149238889314295
929.0,2.730129545851927
930.0,2.174802002725531
931.0,2.474041234730734
932.0,2.4344502523127023
933.0,2.1282217039156763
934.0,2.324657004106969
935.0,2.67495885862842
936.0,2.434674468689314
937.0,1.8827029941686269
938.0,1.9118123093653654
939.0,1.626693686046812
940.0,1.9284991588596019
941.0,1.9025723840405293
942.0,1.422247425891227
943.0,1.858866649601254
944.0,1.9304606576805796
945.0,1.3281701109952395
946.0,1.2010660219127898
947.0,0.8775376544978879
948.0,1.4406679406615863
949.0,1.2221521177758445
950.0,1.1230472295531841
951.0,0.6119914381422278
952.0,0.8127456148709994
953.0,0.870475987082039
954.0,0.5458249876250698
955.0,0.4227678307359742
956.0,0.5070507657117842
957.0,0.5214369036814833
958.0,0.06603527658422294
959.0,0.2520226652036926
960.0,0.4423084701325048
961.0,0.4012454970515418
962.0,0.08618485189583809
963.0,0.13584564005330743
964.0,0.1879661745394346
965.0,0.021189996390509957
966.0,0.5258126219237554
967.0,0.1979444595591762
968.0,0.5456354971252414
969.0,0.16371617144077436
970.0,0.05503921152659495
971.0,0.5163075024657318
972.0,0.15318969341459682
973.0,0.3080575650664575
974.0,0.5749995585958065
975.0,0.3372564487639487
976.0,0.35439963221100107
977.0,0.4118790821394146
978.0,0.7658276357728087
979.0,0.5702832758481392
980.0,0.34457190833541074
981.0,0.642590253948398
982.0,0.4309272023017198
983.0,0.18307674732743648
984.0,0.35968677101537366
985.0,0.1479595425719806
986.0,0.10473010770856442
987.0,0.028474540764932322
988.0,0.5545963575099098
989.0,0.9174233631437245
990.0,2.0541577509897335
991.0,2.090938303209432
992.0,1.9346859898467836
993.0,2.564152223403584
994.0,3.82068009218172
995.0,4.583460907929551
996.0,4.9824710672654025
997.0,5.594062937215786
998.0,6.712381281437357
999.0,8.11095871194211
1000.0,8.46419953266055
1001.0,9.715433669986554
1002.0,10.399724258409082
1003.0,11.18489848168359
1004.0,12.99308233201279
1005.0,13.906592849379443
1006.0,14.351427875155343
1007.0,15.329222381808044
1008.0,16.6430748748575
1009.0,17.180566368132435
1010.0,16.74986534898089
1011.0,16.689589889434764
1012.0,16.38041799081962
1013.0,16.985882140606428
1014.0,16.232850196802303
1015.0,14.632340688227595
1016.0,13.445026369736876
1017.0,13.191957197492226
1018.0,12.535168781935601
1019.0,11.701452041584366
1020.0,10.80296298612375
1021.0,8.021404393579505
1022.0,6.7013629500725
1023.0,5.8986580905540995
1024.0,5.276870138236122
1025.0,5.20633725584127
1026.0,4.87316598940765
1027.0,3.244704742894493
1028.0,2.847536931493376
1029.0,2.5643545754422643
1030.0,1.8811082652318878
1031.0,2.02944255958272
1032.0,2.494908105585692
1033.0,1.848930379161395
1034.0,1.467169303514691
1035.0,0.7688236490284489
1036.0,1.1056697754250404
1037.0,1.6338923857470506
1038.0,1.8810903591414927
1039.0,2.3049153450570508
1040.0,2.7186369112465076
1041.0,3.018100683925083
1042.0,3.962723949460438
1043.0,4.854840967767302
1044.0,5.307043470938322
1045.0,6.655520999999999
1046.0,7.637532685955546
1047.0,8.176316952221562
1048.0,10.119475963353658
1049.0,12.611053638252224
1050.0,14.355076411804157
1051.0,16.29055174085201
1052.0,18.452972004537806
1053.0,21.21927465923256
1054.0,24.524752270323127
1055.0,27.99341053920291
1056.0,31.79442348386259
1057.0,36.49194765617815
1058.0,41.04678595215206
1059.0,43.347588129181474
1060.0,49.14828336000826
1061.0,54.940916900757784
1062.0,60.297500024637856
1063.0,64.3425297108572
1064.0,66.69935859048988
1065.0,69.47447481131906
1066.0,71.51831146533452
1067.0,73.0918015417642
1068.0,74.20255742466307
1069.0,73.89765957198985
1070.0,72.8165158480173
1071.0,71.50388435706778
1072.0,69.54545309401774
1073.0,67.45298153149888
1074.0,65.77064430483996
1075.0,64.60945938893833
1076.0,59.46191260926877
1077.0,54.55756478919769
1078.0,50.92363694432243
1079.0,46.475348923566905
1080.0,42.75762091794463
1081.0,39.183334050552624
1082.0,35.354925156024976
1083.0,32.867957036882764
1084.0,29.40457326786031
1085.0,26.153596653029112
1086.0,23.052998077868914
1087.0,20.697819364179733
1088.0,19.03091601522515
1089.0,17.70413047474389
1090.0,15.33928792661528
1091.0,14.079783021500166
1092.0,13.056522850339842
1093.0,11.573424399264143
1094.0,10.465543917300185
1095.0,9.441707835776922
1096.0,8.876906177295021
1097.0,9.34249013349608
1098.0,7.81365355075397
1099.0,6.195572201983254
1100.0,6.020356387232423
1101.0,6.206673548189842
1102.0,5.251339446032775
1103.0,5.431245359476276
1104.0,4.922901439827165
1105.0,4.417827515825016
1106.0,4.521247913842052
1107.0,4.309760779903523
1108.0,4.1279796181397455
1109.0,4.153019214308432
1110.0,4.5688786299388475
1111.0,5.64848492592019
1112.0,5.559356416577244
1113.0,4.639768504300493
1114.0,3.721156865575582
1115.0,3.8083513247509306
1116.0,4.293256447078671
1117.0,4.5677743618968885
1118.0,3.231272723934612
1119.0,3.8641281797176283
1120.0,3.454699467835553
1121.0,3.727199900410201
1122.0,3.799916793285546
1123.0,3.4801095762647667
1124.0,3.8688608432692684
1125.0,3.96962399107844
1126.0,3.888402459555427
1127.0,3.5310775856717127
1128.0,4.24864762559106
1129.0,3.7866356202628477
1130.0,4.4454307477001445
1131.0,4.804667876036847
1132.0,3.40858055581709
1133.0,4.133213011703529
1134.0,3.708615704579087
1135.0,3.7890662904046937
1136.0,4.742381892603548
1137.0,5.226791454187556
1138.0,5.402638363806735
1139.0,5.078341360589608
1140.0,4.501189257655099
1141.0,4.658205969570762
1142.0,5.004392621433019
1143.0,5.732012629161776
1144.0,4.924412446151244
1145.0,4.204891750861178
1146.0,4.80815580003377
1147.0,4.07084149438133
1148.0,4.070373360337883
1149.0,3.514914219127871
1150.0,4.498110587112613
1151.0,3.5864042464799883
1152.0,3.7112053318738742
1153.0,3.6768961885124956
1154.0,3.3378313442228738
1155.0,2.8354883705218605
1156.0,1.491895394616511
1157.0,0.5629644937341609
1158.0,0.8033667166498267
1159.0,1.2291122517795527
1160.0,0.4824995339012468
1161.0,0.002708194483210082
1162.0,0.19141385676505257
1163.0,0.23519293225558366
1164.0,0.07625152865688084
1165.0,0.26852319664284174
1166.0,0.6568743015773155
1167.0,0.7997180225704518
1168.0,0.5675380743939317
1169.0,0.8481052084352808
1170.0,0.7238218550264884
1171.0,0.5752845030298541
1172.0,0.6754087650992582
1173.0,0.35576360022079184
1174.0,0.16143061768100353
1175.0,0.06371255642715815
1176.0,0.129656136143735
1177.0,0.574655588750469
1178.0,0.0850841903881195
1179.0,0.6717134573588033
1180.0,0.278627933083358
1181.0,2.817037430052592
1182.0,1.439060619432021
1183.0,0.2991403794373775
1184.0,0.055205327174852915
1185.0,0.1950216992534979
1186.0,0.060124775702598304
1187.0,0.644862584063764
1188.0,0.9539853407838501
1189.0,0.44095134001535985
1190.0,0.16983195650758534
1191.0,0.7776532984909287
1192.0,1.1702450763477008
1193.0,1.2244127704007837
1194.0,1.3711722767729282
1195.0,1.2696259681717101
1196.0,1.9015421928459695
1197.0,1.0020207794281684
1198.0,0.7014391040519673
1199.0,1.0125159288345582
1200.0,1.4027051377638313
1201.0,2.005713014494673
1202.0,1.9656961129201294
1203.0,1.8281131182411803
1204.0,1.1358693808418727
1205.0,1.3649953945032196
1206.0,1.6755780832566634
1207.0,1.735238147707268
1208.0,2.2110620902202447
1209.0,2.1815939787860597
1210.0,2.123474872459622
1211.0,2.1126122175485422
1212.0,1.6536105075271035
1213.0,1.677234307892731
1214.0,1.6495707756721671
1215.0,1.7444439154304863
1216.0,2.6496335571451666
1217.0,1.7601797123808827
1218.0,2.1374694241386685
1219.0,2.5033585885444305
1220.0,2.79947395816972
1221.0,2.208590828759088
1222.0,2.1224963850240752
1223.0,2.7350477318629283
1224.0,2.4052471839934837
1225.0,2.105416600207583
1226.0,2.0350991304475694
1227.0,1.985864262954963
1228.0,2.266569855816684
1229.0,1.4855965170577008
1230.0,1.5436008789851983
1231.0,2.188438854102536
1232.0,2.203195970715057
1233.0,1.932849191805263
1234.0,1.529533423847739
1235.0,1.8302871043713953
1236.0,1.5693900581023386
1237.0,1.0293945654794017
1238.0,1.1206394937428203
1239.0,1.2741733600969805
1240.0,0.7465816292980385
1241.0,0.61873763676605
1242.0,0.23872526638162234
1243.0,1.017668605866374
1244.0,0.5326925625823127
1245.0,0.03698722163193617
1246.0,0.9506699580374196
1247.0,1.162414593171212
1248.0,0.3048077606842534
1249.0,0.7399674698406669
1250.0,0.7603807551524526
1251.0,0.8210906769830763
1252.0,0.8640909697556651
1253.0,0.8423902568244122
1254.0,0.887162739517936
1255.0,0.6116145928950746
1256.0,0.46752617626548865
1257.0,0.5858914229980252
1258.0,0.8079909466215551
1259.0,1.2604560977378758
1260.0,0.8976029793673502
1261.0,0.6503531534565706
1262.0,1.2457182458456766
1263.0,0.8068640009503916
1264.0,0.39935501841733273
1265.0,0.3029664614508361
1266.0,0.7074898982504849
1267.0,1.3751362332569648
1268.0,0.9219026082068225
1269.0,0.021050178099585436
1270.0,1.0450025676543417
1271.0,1.0677297311655265
1272.0,0.9583884594669084
1273.0,0.4160381125860112
1274.0,0.4091373276028337
1275.0,0.6929214721620034
1276.0,0.292925093179091
1277.0,1.0904170985587107
1278.0,0.7473422374392773
1279.0,0.6793810895871762
1280.0,1.1649218537145618
1281.0,0.9270765969109226
1282.0,0.5482495858655768
1283.0,0.166818275473285
1284.0,0.08654230038398243
1285.0,0.4349304605498644
1286.0,0.3401658943560879
1287.0,0.12257159893591836
1288.0,0.0
1289.0,0.0
1290.0,0.0
1291.0,0.0
1292.0,0.0
1293.0,0.0
1294.0,0.0
1295.0,0.0
1296.0,0.0
1297.0,0.0
1298.0,0.0
1299.0,0.0
1300.0,0.0
1301.0,0.0
1302.0,0.0
1303.0,0.0
1304.0,0.0
1305.0,0.0
1306.0,0.0
1307.0,0.0
1308.0,0.0
1309.0,0.0
1310.0,0.0
1311.0,0.0
1312.0,0.0
1313.0,0.0
1314.0,0.0
1315.0,0.0
1316.0,0.0
1317.0,0.0
1318.0,0.0
1319.0,0.0
1320.0,0.0
1321.0,0.0
1322.0,0.0
1323.0,0.0
1324.0,0.0
1325.0,0.0
1326.0,0.0
1327.0,0.0
1328.0,0.0
1329.0,0.0
1330.0,0.0
1331.0,0.0
1332.0,0.0
1333.0,0.0
1334.0,0.0
1335.0,0.0
1336.0,0.0
1337.0,0.0
1338.0,0.0
1339.0,0.0
1340.0,0.0
1341.0,0.0
1342.0,0.0
1343.0,0.0
1344.0,0.0
1345.0,0.0
1346.0,0.0
1347.0,0.0
1348.0,0.0
1349.0,0.0
1350.0,0.0
1351.0,0.0
1352.0,0.0
1353.0,0.0
1354.0,0.0
1355.0,0.0
1356.0,0.0
1357.0,0.0
1358.0,0.0
1359.0,0.0
1360.0,0.0
1361.0,0.0
1362.0,0.0
1363.0,0.0
1364.0,0.0
1365.0,0.0
1366.0,0.0
1367.0,0.0
1368.0,0.0
1369.0,0.0
1370.0,0.0
1371.0,0.0
1372.0,0.0
1373.0,0.0
1374.0,0.0
1375.0,0.0
1376.0,0.0
1377.0,0.0
1378.0,0.0
1379.0,0.0
1380.0,0.0
1381.0,0.0
1382.0,0.0
1383.0,0.0
1384.0,0.0
1385.0,0.0
1386.0,0.0
1387.0,0.0
1388.0,0.0
1389.0,0.0
1390.0,0.0
1391.0,0.0
1392.0,0.0
1393.0,0.0
1394.0,0.0
1395.0,0.0
1396.0,0.0
1397.0,0.0
1398.0,0.0
1399.0,0.0
1400.0,0.0
1401.0,0.0
1402.0,0.0
1403.0,0.0
1404.0,0.0
1405.0,0.0
1406.0,0.0
1407.0,0.0
1408.0,0.0
1409.0,0.0
1410.0,0.0
1411.0,0.0
1412.0,0.0
1413.0,0.0
1414.0,0.0
1415.0,0.0
1416.0,0.0
1417.0,0.0
1418.0,0.0
1419.0,0.0
1420.0,0.0
1421.0,0.0
1422.0,0.0
1423.0,0.0
1424.0,0.0
1425.0,0.0
1426.0,0.0
1427.0,0.0
1428.0,0.0
1429.0,0.0
1430.0,0.0
1431.0,0.0
1432.0,0.0
1433.0,0.0
1434.0,0.0
1435.0,0.0
1436.0,0.0
1437.0,0.0
1438.0,0.0
1439.0,0.0
1440.0,0.0
1441.0,0.0
1442.0,0.0
1443.0,0.0
1444.0,0.0
1445.0,0.0
1446.0,0.0
1447.0,0.0
1448.0,0.0
1449.0,0.0
1450.0,0.0
1451.0,0.0
1452.0,0.0
1453.0,0.0
1454.0,0.0
1455.0,0.0
1456.0,0.0
1457.0,0.0
1458.0,0.0
1459.0,0.0
1460.0,0.0
1461.0,0.0
1462.0,0.0
1463.0,0.0
1464.0,0.0
1465.0,0.0
1466.0,0.0
1467.0,0.0
1468.0,0.0
1469.0,0.0
1470.0,0.0
1471.0,0.0
1472.0,0.0
1473.0,0.0
1474.0,0.0
1475.0,0.0
1476.0,0.0
1477.0,0.0
1478.0,0.0
1479.0,0.0
1480.0,0.0
1481.0,0.0
1482.0,0.0
1483.0,0.0
1484.0,0.0
1485.0,0.0
1486.0,0.0
1487.0,0.0
1488.0,0.0
1489.0,0.0
1490.0,0.0
1491.0,0.0
1492.0,0.0
1493.0,0.0
1494.0,0.0
1495.0,0.0
1496.0,0.0
1497.0,0.0
1498.0,0.0
1499.0,0.0
1500.0,0.0
1501.0,0.0
1502.0,0.0
1503.0,0.0
1504.0,0.0
1505.0,0.0
1506.0,0.0
1507.0,0.0
1508.0,0.0
1509.0,0.0
1510.0,0.0
1511.0,0.0
1512.0,0.0
1513.0,0.0
1514.0,0.0
1515.0,0.0
1516.0,0.0
1517.0,0.0
1518.0,0.0
1519.0,0.0
1520.0,0.0
1521.0,0.0
1522.0,0.0
1523.0,0.0
1524.0,0.0
1525.0,0.0
1526.0,0.0
1527.0,0.0
1528.0,0.0
1529.0,0.0
1530.0,0.0
1531.0,0.0
1532.0,0.0
1533.0,0.0
1534.0,0.0
1535.0,0.0
1536.0,0.0
1537.0,0.0
1538.0,0.0
1539.0,0.0
1540.0,0.0
1541.0,0.0
1542.0,0.0
1543.0,0.0
1544.0,0.0
1545.0,0.0
1546.0,0.0
1547.0,0.0
1548.0,0.0
1549.0,0.0
1550.0,0.0
1551.0,0.0
1552.0,0.0
1553.0,0.0
1554.0,0.0
1555.0,0.0
1556.0,0.0
1557.0,0.0
1558.0,0.0
1559.0,0.0
1560.0,0.0
1561.0,0.0
1562.0,0.0
1563.0,0.0
1564.0,0.0
1565.0,0.0
1566.0,0.0
1567.0,0.0
1568.0,0.0
1569.0,0.0
1570.0,0.0
1571.0,0.0
1572.0,0.0
1573.0,0.0
1574.0,0.0
1575.0,0.0
1576.0,0.0
1577.0,0.0
1578.0,0.0
1579.0,0.0
1580.0,0.0
1581.0,0.0
1582.0,0.0
1583.0,0.0
1584.0,0.0
1585.0,0.0
1586.0,0.0
1587.0,0.0
1588.0,0.0
1589.0,0.0
1590.0,0.0
1591.0,0.0
1592.0,0.0
1593.0,0.0
1594.0,0.0
1595.0,0.0
1596.0,0.0
1597.0,0.0
1598.0,0.0
1599.0,0.0
