0.0,0.0
1.0,0.0
2.0,0.0
3.0,0.0
4.0,0.0
5.0,0.0
6.0,0.0
7.0,0.0
8.0,0.0
9.0,0.0
10.0,0.0
11.0,0.0
12.0,0.0
13.0,0.0
14.0,0.0
15.0,0.0
16.0,0.0
17.0,0.0
18.0,0.0
19.0,0.0
20.0,0.0
21.0,0.0
22.0,0.0
23.0,0.0
24.0,0.0
25.0,0.0
26.0,0.0
27.0,0.0
28.0,0.0
29.0,0.0
30.0,0.0
31.0,0.0
32.0,0.0
33.0,0.0
34.0,0.0
35.0,0.0
36.0,0.0
37.0,0.0
38.0,0.0
39.0,0.0
40.0,0.0
41.0,0.0
42.0,0.0
43.0,0.0
44.0,0.0
45.0,0.0
46.0,0.0
47.0,0.0
48.0,0.0
49.0,0.0
50.0,0.0
51.0,0.0
52.0,0.0
53.0,0.0
54.0,0.0
55.0,0.0
56.0,0.0
57.0,0.0
58.0,0.0
59.0,0.0
60.0,0.0
61.0,0.0
62.0,0.0
63.0,0.0
64.0,0.0
65.0,0.0
66.0,0.0
67.0,0.0
68.0,0.0
69.0,0.0
70.0,0.0
71.0,0.0
72.0,0.0
73.0,0.0
74.0,0.0
75.0,0.0
76.0,0.0
77.0,0.0
78.0,0.0
79.0,0.0
80.0,0.0
81.0,0.0
82.0,0.0
83.0,0.0
84.0,0.0
85.0,0.0
86.0,0.0
87.0,0.0
88.0,0.0
89.0,0.0
90.0,0.0
91.0,0.0
92.0,0.0
93.0,0.0
94.0,0.0
95.0,0.0
96.0,0.0
97.0,0.0
98.0,0.0
99.0,0.0
100.0,0.0
101.0,0.0
102.0,0.0
103.0,0.0
104.0,0.0
105.0,0.0
106.0,0.0
107.0,0.0
108.0,0.0
109.0,0.0
110.0,0.0
111.0,0.0
112.0,0.0
113.0,0.0
114.0,0.0
115.0,0.0
116.0,0.0
117.0,0.0
118.0,0.0
119.0,0.0
120.0,0.0
121.0,0.0
122.0,0.0
123.0,0.0
124.0,0.0
125.0,0.0
126.0,0.0
127.0,-11.864659413966985
128.0,24.34662527417188
129.0,46.08897627467207
130.0,39.09583996227349
131.0,40.97970357810684
132.0,44.443687591591356
133.0,14.588817447271692
134.0,0.5764305066481344
135.0,3.2710211132217415
136.0,0.5398828428740934
137.0,15.048137796169343
138.0,16.439980307255972
139.0,33.523045829172986
140.0,63.35511043321989
141.0,88.08151220071642
142.0,94.35978136075077
143.0,100.42713316037013
144.0,103.90910700324427
145.0,98.63660756598955
146.0,82.78155668676058
147.0,116.56538986226204
148.0,120.87881784894364
149.0,78.64367293545152
150.0,74.80671593449448
151.0,46.816722303749835
152.0,25.793961152991304
153.0,18.49763997186011
154.0,16.71149845277219
155.0,7.4343858939881935
156.0,20.793454990385545
157.0,30.66893545816322
158.0,10.102604791619274
159.0,15.91704666432042
160.0,9.38254345536738
161.0,47.072014323814436
162.0,69.62783857315532
163.0,60.1408580929502
164.0,69.6282772204478
165.0,74.8890385627212
166.0,64.51497477331228
167.0,42.50587937062036
168.0,76.77718127519299
169.0,60.97826907109035
170.0,30.053572883966908
171.0,55.94743405963656
172.0,75.84848044374185
173.0,57.7342160073774
174.0,47.98760053664078
175.0,69.92831182362463
176.0,69.72368778809404
177.0,67.51210837421917
178.0,78.18378565514216
179.0,96.68909789437232
180.0,105.08144320199663
181.0,146.20975862801197
182.0,146.16067999284985
183.0,127.01758876358971
184.0,143.28659609631035
185.0,133.40517553935678
186.0,165.48544378370153
187.0,171.65568711795547
188.0,113.68014903511805
189.0,100.25257521976283
190.0,78.12295273915765
191.0,58.86169911221495
192.0,58.28503867304223
193.0,79.84785425444359
194.0,73.02382883266452
195.0,56.54118366017463
196.0,43.801212053810836
197.0,41.353756933350944
198.0,49.33912699379251
199.0,46.320902861571824
200.0,37.96241248599065
201.0,33.97563826244003
202.0,34.03706348087937
203.0,82.62228847127327
204.0,85.64567907205449
205.0,54.58101683980806
206.0,67.94586400654141
207.0,64.01697411797562
208.0,47.960102452762904
209.0,32.357877610165325
210.0,24.88912537787776
211.0,11.354701495810968
212.0,28.120986293467755
213.0,37.825403425468465
214.0,31.49198134023968
215.0,41.67126303608753
216.0,25.476677060498677
217.0,13.999484990725836
218.0,26.773411787412186
219.0,65.3257768507172
220.0,85.2599890091629
221.0,78.33212846402104
222.0,72.36583292245274
223.0,79.85032908062996
224.0,80.34474638930584
225.0,84.7447482782269
226.0,79.86815426894906
227.0,70.79330773454475
228.0,73.54069441711297
229.0,111.50501380680763
230.0,106.82046121838198
231.0,108.85296911392564
232.0,150.2550512205221
233.0,172.4695673381378
234.0,197.41733480217084
235.0,203.43342630555537
236.0,195.55750029979234
237.0,201.4367225856179
238.0,244.72213732359984
239.0,277.75224381207016
240.0,308.0008891391973
241.0,346.4482728495516
242.0,377.51576134319447
243.0,413.32137959791976
244.0,461.5613533285293
245.0,515.2845099376905
246.0,560.1885977327187
247.0,610.7559320173643
248.0,614.5585406825533
249.0,583.451872017591
250.0,536.0629251597546
251.0,467.4482921340986
252.0,344.46433184407965
253.0,235.9827274819511
254.0,158.93486091382994
255.0,89.67502110646404
256.0,37.93574860092828
257.0,6.0971892758801465
258.0,13.699101889088876
259.0,24.536239042325732
260.0,15.61030023514367
261.0,8.991814056872565
262.0,14.774700344341651
263.0,8.280814339611737
264.0,41.57830139038699
265.0,55.56795596557826
266.0,106.90556152745302
267.0,181.76717949529797
268.0,236.13516833414099
269.0,219.8190786696439
270.0,178.38968314362367
271.0,125.0661804258529
272.0,79.25436311933707
273.0,58.18938561500532
274.0,43.32529214659522
275.0,34.00392718342011
276.0,37.48455242840255
277.0,51.02942329625105
278.0,57.66458833135353
279.0,45.91706064433244
280.0,62.31737736311194
281.0,88.94198403946396
282.0,96.52101846693488
283.0,112.40624657592515
284.0,113.82792076484482
285.0,99.79456104766437
286.0,95.50005260620465
287.0,132.65962920021977
288.0,137.33065433272114
289.0,143.1464823910069
290.0,154.36934053528614
291.0,152.78480409943765
292.0,107.26690925526476
293.0,117.00848627987044
294.0,119.30556088637168
295.0,105.09510283898085
296.0,102.926284012084
297.0,99.51837484448006
298.0,102.90794360059044
299.0,87.12966671644
300.0,68.53768945122702
301.0,100.0418897340612
302.0,92.24107839946386
303.0,96.8742388518367
304.0,112.59073885404078
305.0,119.23410036663574
306.0,110.30789916637215
307.0,146.7579498137066
308.0,171.95457598740802
309.0,182.39218577736662
310.0,206.01675575637418
311.0,240.4933832302297
312.0,239.66985253893432
313.0,240.43476296715764
314.0,275.53101220021364
315.0,352.81606850948197
316.0,399.3533579030304
317.0,446.06534271425386
318.0,521.1696682900297
319.0,633.5238768937046
320.0,772.9791032723713
321.0,897.1069177848119
322.0,1095.6791836034274
323.0,1342.9550445874015
324.0,1565.1532986541476
325.0,1797.3038085243084
326.0,1862.3474841982422
327.0,1727.5498843964974
328.0,1427.2153092395442
329.0,1032.3840524336845
330.0,749.7918246546561
331.0,522.0326406031434
332.0,360.5177976233725
333.0,265.77874962806834
334.0,188.1820949612732
335.0,146.50592914768256
336.0,116.98941635537608
337.0,91.42988484765654
338.0,69.70453343095078
339.0,48.33167224951383
340.0,18.17313274958551
341.0,12.740978612004408
342.0,27.24326784469045
343.0,27.074428028137614
344.0,4.102909170698691
345.0,16.676073327512167
346.0,7.812619064171408
347.0,24.823849561606046
348.0,13.055556395357103
349.0,6.164090368288848
350.0,3.928934548946054
351.0,5.341950328047551
352.0,3.4055892787441744
353.0,15.358982874029016
354.0,6.001000467259828
355.0,11.951636294622109
356.0,1.6606291870530399
357.0,4.6989329377259645
358.0,0.721381087065763
359.0,2.5060297798464317
360.0,8.121904083762976
361.0,4.735891800831397
362.0,20.554958928953276
363.0,10.767384765902769
364.0,18.712293293716527
365.0,7.380549097569461
366.0,2.934229945647024
367.0,4.095148317139362
368.0,12.97266460637988
369.0,15.465644317220253
370.0,11.829776064681411
371.0,17.00960269641326
372.0,54.02551078699624
373.0,66.88840542583647
374.0,72.65046906362406
375.0,73.24515112183413
376.0,76.21316890841682
377.0,98.4625128379389
378.0,145.15044029091735
379.0,186.86542898313803
380.0,222.92092560537625
381.0,257.1983976558232
382.0,290.98196089843856
383.0,391.64913438237073
384.0,457.35152329687537
385.0,481.92019149745175
386.0,511.22512436571816
387.0,577.9741117234308
388.0,609.1611068813257
389.0,697.1396998429378
390.0,828.1477096067939
391.0,967.633761067076
392.0,1148.4788439861836
393.0,1354.3859372893758
394.0,1564.8319717816798
395.0,1841.4329475557531
396.0,2224.9812784864607
397.0,2590.2577912527813
398.0,2987.936227806658
399.0,3246.8453683423854
400.0,3317.164923737434
401.0,3203.0289454657745
402.0,2842.8774684272457
403.0,2430.962846395533
404.0,1998.212411902335
405.0,1615.2873692356814
406.0,1349.8607160768936
407.0,1160.4837813042184
408.0,1035.6502683822946
409.0,975.5136076151697
410.0,920.4464367950634
411.0,808.4165575027315
412.0,737.0173711737611
413.0,598.5960578465525
414.0,498.39882254176933
415.0,455.30094480643845
416.0,419.02026403394854
417.0,398.1090555010113
418.0,389.9120094668049
419.0,346.3078948212608
420.0,296.3554359386014
421.0,293.5933039481478
422.0,253.04081718223787
423.0,260.1814504128857
424.0,251.06443601542583
425.0,231.90130266492383
426.0,241.23049641698825
427.0,225.03491965147794
428.0,220.45878044577705
429.0,232.9993525591975
430.0,244.38008293166953
431.0,243.08795097126176
432.0,302.1001672333912
433.0,318.1250497082101
434.0,335.99715248188176
435.0,364.875232524996
436.0,380.1341017450824
437.0,382.2247508096982
438.0,413.37662651662964
439.0,403.5842365300787
440.0,375.3544010004786
441.0,362.3635682299058
442.0,360.17583030301677
443.0,290.06714373019963
444.0,256.7678242394138
445.0,231.68205726638956
446.0,180.66046043359933
447.0,150.42897540983375
448.0,104.52237880050954
449.0,95.47577683493158
450.0,77.89875355997839
451.0,53.84979161988012
452.0,51.01546475717698
453.0,38.25678479702141
454.0,44.5949952926029
455.0,37.69614808835247
456.0,11.793956072180025
457.0,35.04312431038736
458.0,32.22850203979101
459.0,1.5771877363539462
460.0,9.743600881769341
461.0,18.944119609583094
462.0,28.172045845617117
463.0,18.32853171902156
464.0,2.9261351601483216
465.0,12.644502686674855
466.0,16.389997772714146
467.0,6.12843774413119
468.0,6.240953930070672
469.0,15.48869225013194
470.0,1.4658144705316358
471.0,14.2048056028465
472.0,3.813484725110923
473.0,15.66151874461355
474.0,27.172616867628967
475.0,29.984521607774173
476.0,38.1644182077191
477.0,56.687138890854804
478.0,25.730291865580046
479.0,33.0552472685421
480.0,28.342895878503995
481.0,35.695827084377726
482.0,79.43320825823761
483.0,88.3208929087053
484.0,53.256948593502415
485.0,56.72232131630716
486.0,75.83387025244855
487.0,79.43932636650322
488.0,80.13309431042228
489.0,77.1094873349623
490.0,70.31077226030905
491.0,73.00891088852879
492.0,94.50051348764615
493.0,119.18122711474001
494.0,143.94419303923087
495.0,146.35728067290714
496.0,139.73108948312833
497.0,139.2846417411489
498.0,150.00513828772196
499.0,158.68733894376192
500.0,178.87822083253522
501.0,200.56505930058455
502.0,227.05969602318956
503.0,258.88804263890705
504.0,271.2625001426049
505.0,283.6730700784898
506.0,275.9840213719645
507.0,293.041311132616
508.0,350.81744281018683
509.0,400.09547803722984
510.0,412.2560694586816
511.0,440.66371037034327
512.0,494.10562302573993
513.0,554.7729194983774
514.0,609.1272357356598
515.0,688.8287236736423
516.0,766.534660455965
517.0,847.2226393115316
518.0,923.4562718508394
519.0,985.0974660078531
520.0,1021.2052916441871
521.0,1016.5230929030729
522.0,994.1406024448866
523.0,965.3329653937346
524.0,917.4571067944414
525.0,826.5617508151914
526.0,757.3502021727139
527.0,624.9032231262762
528.0,498.2575600219461
529.0,404.40320028865625
530.0,326.9919963638306
531.0,296.61538052091674
532.0,254.63902968640141
533.0,194.11961052304875
534.0,153.00513281129784
535.0,143.8306603414495
536.0,113.88282825204473
537.0,58.75728426388855
538.0,47.05479615623489
539.0,41.901955587865736
540.0,27.426536757057036
541.0,28.132231605895612
542.0,35.653517229304654
543.0,16.474278311753654
544.0,10.958928899435337
545.0,20.10685782362585
546.0,21.43672512968898
547.0,4.029661018511836
548.0,0.7557462993229306
549.0,39.09641276884469
550.0,36.025458848263305
551.0,1.934459530798906
552.0,16.93233946238281
553.0,16.641068494871057
554.0,5.321625943386375
555.0,19.30564496009166
556.0,38.95363939295948
557.0,74.67357307176715
558.0,83.51414728238547
559.0,91.33044634585525
560.0,117.54783317602786
561.0,145.94460215835906
562.0,154.3500682217938
563.0,133.5739686482776
564.0,134.89079102646153
565.0,122.08156335725832
566.0,121.98938284043354
567.0,141.34565005177274
568.0,155.8599971204209
569.0,121.10451509427467
570.0,156.53503325041868
571.0,169.17724391120547
572.0,147.94170788650905
573.0,133.42708966254486
574.0,150.78764487339862
575.0,121.76710032389283
576.0,140.13026097488924
577.0,147.39386467522095
578.0,132.80965481068304
579.0,115.98272370984735
580.0,117.18299007467084
581.0,112.22108701160916
582.0,99.64049688712349
583.0,90.16770460959785
584.0,97.29588431220954
585.0,113.20788723763538
586.0,90.39644778561286
587.0,84.13836542044986
588.0,83.72861318247686
589.0,84.72608270269174
590.0,95.01058824659428
591.0,83.46348812027853
592.0,79.08823135565257
593.0,76.15873753906092
594.0,83.23416015057772
595.0,75.39875095370716
596.0,86.11436138998366
597.0,81.74257621575147
598.0,57.77701708228456
599.0,55.371216919546704
600.0,70.84675053439912
601.0,78.73324432317533
602.0,71.38236229945632
603.0,109.39679218113224
604.0,101.31693389768525
605.0,93.15127573429156
606.0,114.86300623231517
607.0,143.94113206990994
608.0,151.68549566985314
609.0,190.52568207947687
610.0,208.00429799021902
611.0,267.04045897157204
612.0,329.3054271680952
613.0,358.68214834605715
614.0,379.77610725811104
615.0,339.417261200379
616.0,327.8306072816711
617.0,279.2404659065667
618.0,204.5954969445116
619.0,143.1290802630008
620.0,82.20530505253696
621.0,82.70917793155377
622.0,70.74684200302332
623.0,49.413008652583656
624.0,37.72623724396302
625.0,42.961938308761674
626.0,40.347251149086084
627.0,5.455955721744362
628.0,3.9401922072862305
629.0,23.891689623555944
630.0,26.08785916343116
631.0,5.004784755701629
632.0,5.543384245832521
633.0,11.272163266506848
634.0,15.795711844466542
635.0,12.209350750382121
636.0,5.089418128935475
637.0,11.922552642281037
638.0,9.352522363982466
639.0,28.825402666995814
640.0,35.81637891607705
641.0,12.925558126248909
642.0,3.0820293486820316
643.0,4.120473291101831
644.0,11.862196918941113
645.0,2.6082894505963146
646.0,1.78909531154639
647.0,0.12806784202706745
648.0,1.6190591472051068
649.0,14.811693845891455
650.0,18.10853443694974
651.0,27.95167436239901
652.0,40.80489689160352
653.0,50.38040228510548
654.0,50.80230828119037
655.0,41.2768650924046
656.0,48.712237652342296
657.0,92.81436837597091
658.0,99.2224636117868
659.0,90.15413643298521
660.0,105.55150112308613
661.0,132.9305481444997
662.0,183.62140476722504
663.0,184.78465895969126
664.0,215.05481215965935
665.0,262.74679048094504
666.0,296.4753343089864
667.0,340.88262891724173
668.0,386.6866565738516
669.0,479.9112779861754
670.0,564.050424173493
671.0,649.7322697701504
672.0,760.6894145432865
673.0,881.763720758824
674.0,1041.614323236546
675.0,1234.5543412463717
676.0,1440.5733123613425
677.0,1704.9452648120898
678.0,2038.121125368062
679.0,2402.3997449574276
680.0,2929.2835466602746
681.0,3542.135804729104
682.0,4246.873962980402
683.0,5161.566482879355
684.0,6332.739318516628
685.0,7652.360150819631
686.0,9024.484289864895
687.0,10228.723522680124
688.0,10760.367970812946
689.0,10384.281406153781
690.0,9210.368831110192
691.0,7668.565269023129
692.0,6143.58787754126
693.0,4902.783032178991
694.0,3896.010762116845
695.0,3143.6504389700985
696.0,2578.701505817428
697.0,2096.1965235304942
698.0,1782.0564809145812
699.0,1516.8763520031775
700.0,1287.8147108023275
701.0,1098.4780214960695
702.0,949.2766004616576
703.0,835.139929765823
704.0,744.4773084300243
705.0,640.8757533164082
706.0,554.1735576610633
707.0,487.0485237215058
708.0,445.2388675469227
709.0,413.98223827208744
710.0,350.9824782946358
711.0,310.41207517142294
712.0,257.68560884091755
713.0,217.21527757699923
714.0,194.3218072696609
715.0,181.1244907166075
716.0,174.21159102533647
717.0,170.52364607347982
718.0,113.38188673313564
719.0,89.48667489833683
720.0,93.2970696229839
721.0,85.43655966476618
722.0,58.56514978108356
723.0,54.55174275259647
724.0,47.15440018291761
725.0,41.082924869047254
726.0,55.73199018156569
727.0,53.79667971690453
728.0,14.87877142229271
729.0,22.750522832814646
730.0,27.637686187057046
731.0,10.82217413910821
732.0,16.35051629645652
733.0,17.102210885352033
734.0,0.3669958469791285
735.0,2.853209613472972
736.0,22.38836632856869
737.0,3.1089628357191392
738.0,20.21497804994946
739.0,3.657980839657715
740.0,25.04019699272888
741.0,18.437892591977114
742.0,26.554644125708624
743.0,29.93599667555294
744.0,6.176541002531717
745.0,6.772791342494926
746.0,33.925594541586285
747.0,49.45311062030226
748.0,29.95310295508881
749.0,36.16295234505679
750.0,51.918939305001004
751.0,25.913121506432553
752.0,4.982371424143459
753.0,12.750488318198329
754.0,18.595614424004868
755.0,16.320764717354766
756.0,9.599211015889745
757.0,35.23220445219487
758.0,43.75931419308767
759.0,35.62803179510219
760.0,37.449331843666805
761.0,51.86904427568041
762.0,58.16267328644171
763.0,33.772720808602614
764.0,25.846980006620527
765.0,40.429918450981454
766.0,54.69965345609292
767.0,62.813418477269025
768.0,102.69361656689037
769.0,113.63357081422785
770.0,106.28722516598232
771.0,94.56889827970701
772.0,89.77001282395098
773.0,92.84273622272671
774.0,95.73003006426362
775.0,99.70134333259976
776.0,78.80400329348774
777.0,88.22548891210734
778.0,85.49943903422337
779.0,67.5322123538334
780.0,66.13561856367726
781.0,71.7598221174545
782.0,45.81300393328736
783.0,40.48649590180073
784.0,46.48864324557832
785.0,50.40198332406204
786.0,46.47304962225329
787.0,38.25016033042529
788.0,33.03843079809567
789.0,30.61784050047511
790.0,50.51110657691477
791.0,46.51637719334456
792.0,30.30267045469426
793.0,21.061588858537732
794.0,8.680121799640197
795.0,15.66776518964513
796.0,13.474577341971113
797.0,49.17584787921002
798.0,43.98347984710099
799.0,7.450788417193427
800.0,9.199460171338494
801.0,18.37306721235552
802.0,18.166923893620744
803.0,13.162898529294756
804.0,5.982731323159589
805.0,4.919801547747806
806.0,12.728608179972273
807.0,22.979965136446403
808.0,25.045990548543788
809.0,11.197588510952992
810.0,12.988440625047177
811.0,9.353098390251972
812.0,1.177037836149754
813.0,4.945321232614063
814.0,13.94968451061873
815.0,3.1564955418058855
816.0,8.77895645337352
817.0,4.725183428337212
818.0,6.720649985749391
819.0,8.446102550091998
820.0,3.0963156976271375
821.0,4.849491446393633
822.0,13.086211909166762
823.0,10.009275852418245
824.0,27.197009968524075
825.0,15.348698862305275
826.0,13.817351068573837
827.0,24.758165858872506
828.0,18.88496739064548
829.0,20.017631607848376
830.0,5.609764640362461
831.0,12.956801927869924
832.0,30.70350241328666
833.0,26.31296571883392
834.0,25.977498194581926
835.0,52.379209385676916
836.0,21.186083267627026
837.0,22.94675674178956
838.0,57.254382310522715
839.0,52.24724173650077
840.0,39.170124806221224
841.0,32.3221122271544
842.0,17.285095967897057
843.0,25.38939648631539
844.0,4.612327667187731
845.0,28.79832539181753
846.0,43.72768876323016
847.0,37.933246282136956
848.0,26.637792161848424
849.0,19.570515264712427
850.0,17.304685222327883
851.0,20.692513174402553
852.0,32.48739689928105
853.0,41.55635658018865
854.0,40.638502901152386
855.0,39.64558493455415
856.0,44.64658634333536
857.0,43.40416745770628
858.0,37.17405668990475
859.0,23.127990551282736
860.0,14.674819154763847
861.0,34.9969467416253
862.0,52.15124329425712
863.0,38.0459743731252
864.0,15.017641513432151
865.0,38.33605917589482
866.0,12.633010477431394
867.0,45.67193918369931
868.0,22.448717768370695
869.0,4.397239634579633
870.0,10.021498222494772
871.0,7.094969446124943
872.0,40.75639025665207
873.0,32.40983611438607
874.0,13.178831240721271
875.0,34.25049201968302
876.0,41.55582978101661
877.0,38.72276423063103
878.0,41.4821794586607
879.0,12.464171928059713
880.0,56.30119427753928
881.0,59.00311168345179
882.0,73.36550208138958
883.0,65.04652563743896
884.0,50.13476805220642
885.0,47.38445494634247
886.0,44.13870885432389
887.0,56.11902410862458
888.0,62.32724356328136
889.0,68.1116606564979
890.0,84.52655547019938
891.0,79.31013232354464
892.0,73.85124459689418
893.0,100.6615084053752
894.0,112.67614607878885
895.0,87.52918494536775
896.0,104.79990765880964
897.0,130.21541148875906
898.0,136.5058375010954
899.0,138.33131140837
900.0,141.25314790259912
901.0,134.85269475198146
902.0,163.65955893162183
903.0,162.01607580675767
904.0,159.95395630060398
905.0,172.9222000606435
906.0,190.8025182872007
907.0,206.57529348802896
908.0,216.18721323452723
909.0,213.9441029025478
910.0,203.85450493264443
911.0,236.76553731299396
912.0,221.60878488001197
913.0,250.01274536685952
914.0,267.63822205439453
915.0,262.52089264035817
916.0,293.9551115269756
917.0,305.39540079548976
918.0,276.72841246820605
919.0,293.3819511627321
920.0,315.0608807285958
921.0,315.7142434962617
922.0,300.648382958102
923.0,286.6132734183797
924.0,287.80470486321053
925.0,294.52320792533345
926.0,286.5456074172118
927.0,265.96003676567886
928.0,258.0857327328024
929.0,241.17184306374418
930.0,226.305231645699
931.0,220.12040507003437
932.0,204.35370307821708
933.0,208.23829892687638
934.0,140.72811422188775
935.0,148.9109019736959
936.0,157.2927932524718
937.0,154.01350363453156
938.0,151.5845233339641
939.0,146.7363495518517
940.0,135.53499288193436
941.0,115.060422274511
942.0,123.70894130323774
943.0,113.80605048895649
944.0,91.91884608530958
945.0,85.63960879681397
946.0,83.13840214844356
947.0,70.00087912016072
948.0,63.26669304282244
949.0,57.53283400766382
950.0,27.76509147297302
951.0,41.2481988696414
952.0,48.53119699508883
953.0,48.760248781223765
954.0,51.167281565641396
955.0,48.26802503479929
956.0,28.189308365395913
957.0,10.081532220176841
958.0,16.63074034388958
959.0,7.040007080076424
960.0,3.408917036394467
961.0,10.502233250214756
962.0,5.757403425511814
963.0,12.861210366846274
964.0,12.616156618873589
965.0,26.113383002662864
966.0,9.577832434429784
967.0,5.630789460782587
968.0,0.5337927033969532
969.0,13.84141660675995
970.0,27.138749989713133
971.0,30.4712831847386
972.0,32.20174017463771
973.0,35.04482742204752
974.0,32.4469426670705
975.0,22.7443861280557
976.0,36.68389727144943
977.0,29.93308137056278
978.0,27.8565377214564
979.0,28.43166638113933
980.0,5.868589753611313
981.0,28.49569901469644
982.0,27.222777779781808
983.0,30.684963221986834
984.0,57.51998463759807
985.0,88.27658594707988
986.0,105.13280545028525
987.0,123.6671468795624
988.0,163.49608448547067
989.0,209.33812350639639
990.0,227.88343536939593
991.0,281.16168174262674
992.0,335.69153172271376
993.0,376.02731632273264
994.0,412.3679043383817
995.0,471.9547254261323
996.0,524.0494590902154
997.0,532.2604185377079
998.0,552.928374874159
999.0,591.0710143743996
1000.0,609.1527967805846
1001.0,652.9435346727131
1002.0,661.8112898295586
1003.0,672.1641153498667
1004.0,690.1227915221372
1005.0,700.2035496873657
1006.0,710.3394745155483
1007.0,700.5398005999974
1008.0,752.6604837056469
1009.0,765.1153084641193
1010.0,749.2717576184485
1011.0,736.2364612817271
1012.0,761.6992664749929
1013.0,766.2082000416655
1014.0,716.7157582973462
1015.0,715.6932304842186
1016.0,703.5711968178987
1017.0,625.2950696058031
1018.0,580.3476436816426
1019.0,554.9180011847974
1020.0,524.1486618706325
1021.0,468.23421346195255
1022.0,419.55549121751443
1023.0,398.1231495424862
1024.0,328.0198434425011
1025.0,293.34333177028697
1026.0,246.1861766536012
1027.0,201.3921149972636
1028.0,197.3892129061264
1029.0,159.051734807084
1030.0,118.11832448740513
1031.0,114.77201975687262
1032.0,107.62634713791194
1033.0,81.77882860400501
1034.0,60.06158742446571
1035.0,79.49946658264676
1036.0,36.78440687480943
1037.0,34.719774754935166
1038.0,29.950707496049915
1039.0,39.50114764318095
1040.0,70.72477153461655
1041.0,71.86327377961423
1042.0,68.15498904634846
1043.0,60.08629754954311
1044.0,124.5806975571782
1045.0,163.70759727319262
1046.0,204.7774816899314
1047.0,242.11252743854698
1048.0,290.07111514636375
1049.0,358.21711293584565
1050.0,440.01205925897153
1051.0,544.7045229482569
1052.0,654.9962788694942
1053.0,805.0013946362067
1054.0,957.4175025989882
1055.0,1131.3734364752102
1056.0,1325.6733733492565
1057.0,1521.465729152851
1058.0,1752.6437670761413
1059.0,2040.7356263110332
1060.0,2326.265785838221
1061.0,2625.6909281805247
1062.0,2900.4950546956343
1063.0,3258.663937866456
1064.0,3575.3175397491555
1065.0,3864.5751796162854
1066.0,4036.208256303411
1067.0,4129.751485894706
1068.0,4218.812839237948
1069.0,4271.939477320391
1070.0,4310.564205838223
1071.0,4279.840399438275
1072.0,4244.298999064682
1073.0,4039.506055797923
1074.0,3775.0824004002925
1075.0,3546.743217795058
1076.0,3252.291191501037
1077.0,2925.389556614378
1078.0,2683.9899580192164
1079.0,2439.6427028025855
1080.0,2182.9494767447077
1081.0,1978.2562673936964
1082.0,1785.9566550175114
1083.0,1627.9451821608884
1084.0,1532.137435962511
1085.0,1403.217494359759
1086.0,1269.0084696084218
1087.0,1175.395123636605
1088.0,1085.1171798499556
1089.0,1030.1704579336651
1090.0,946.920894326645
1091.0,923.0693855180929
1092.0,854.8833314781764
1093.0,779.1011508908923
1094.0,713.822753532653
1095.0,686.831216035366
1096.0,635.7548173612789
1097.0,565.6659574896513
1098.0,577.7446192124179
1099.0,543.9891434089611
1100.0,430.6197614716626
1101.0,424.0192032169687
1102.0,454.29346308288484
1103.0,400.5496821425011
1104.0,362.62341634460324
1105.0,330.1221647020675
1106.0,308.89270121006876
1107.0,321.544302586756
1108.0,327.51107509087046
1109.0,321.7857287839953
1110.0,293.16250765530094
1111.0,276.02126739788235
1112.0,307.72906378012397
1113.0,319.82026107045937
1114.0,304.26315792604066
1115.0,307.2535790631466
1116.0,333.02764436631816
1117.0,362.04861517006094
1118.0,384.8415262934186
1119.0,382.9107088251318
1120.0,418.33518985757684
1121.0,409.9195641882257
1122.0,463.4387454801417
1123.0,420.0041425341857
1124.0,420.3566588123406
1125.0,442.70725512327067
1126.0,442.4411888422575
1127.0,458.7270591894977
1128.0,474.0082022057815
1129.0,417.29210709551995
1130.0,455.61900960675734
1131.0,438.9434851886776
1132.0,396.657649810053
1133.0,369.5052458888516
1134.0,363.92460162993024
1135.0,352.88555295345003
1136.0,312.82820869946295
1137.0,268.4107672761919
1138.0,247.60993807313767
1139.0,222.11440156706874
1140.0,171.83849064939832
1141.0,161.85234672491126
1142.0,132.95287150906327
1143.0,142.4175251810339
1144.0,151.63986357408572
1145.0,115.30574437900975
1146.0,88.72542645144031
1147.0,88.54810370684415
1148.0,78.5030988454367
1149.0,49.06196887583516
1150.0,42.27620148669661
1151.0,95.36989629128172
1152.0,25.611600577197226
1153.0,47.933752975612734
1154.0,38.69268767941836
1155.0,21.335296061090045
1156.0,32.705234148481786
1157.0,31.84676838565681
1158.0,26.19165864947161
1159.0,14.7046416384264
1160.0,23.057427039246562
1161.0,34.542620001754734
1162.0,22.596304808972693
1163.0,49.93971981148794
1164.0,42.33046291604234
1165.0,22.198385074794686
1166.0,25.504938402008708
1167.0,25.460554611162042
1168.0,32.691131021013966
1169.0,40.23080949917696
1170.0,32.636394091583455
1171.0,19.078882808883463
1172.0,9.295319350809825
1173.0,19.568350959509658
1174.0,26.944828470505886
1175.0,16.202181709759326
1176.0,15.404138307905692
1177.0,21.815552093008332
1178.0,39.303224320810436
1179.0,49.062249948483114
1180.0,33.31476420344789
1181.0,44.06616608670085
1182.0,81.22857181597625
1183.0,59.545683032139216
1184.0,66.23371045879614
1185.0,84.40479334666847
1186.0,69.3150527638093
1187.0,98.02014
1188.0,97.49186794191021
1189.0,85.60568177523496
1190.0,84.94912753646982
1191.0,100.5925401323062
1192.0,94.56569051570234
1193.0,82.51828884201886
1194.0,114.71821668300603
1195.0,120.59214364891803
1196.0,90.78798616019787
1197.0,94.71227283314718
1198.0,118.89695386978396
1199.0,85.33098538016473
1200.0,101.14400391283657
1201.0,139.33682985011313
1202.0,130.8055904594979
1203.0,108.03058171528458
1204.0,128.52782453592212
1205.0,149.86503305382405
1206.0,125.70919004687148
1207.0,150.73867559011552
1208.0,172.12100480121998
1209.0,175.4493656816956
1210.0,167.39603865915828
1211.0,188.94290728606805
1212.0,200.5873046971981
1213.0,175.58515271819064
1214.0,164.782609836736
1215.0,176.76099910331192
1216.0,173.0521382009753
1217.0,167.65869875992402
1218.0,170.4899816497426
1219.0,118.53167882190179
1220.0,138.85294494776883
1221.0,88.1123151033964
1222.0,96.80318870673322
1223.0,110.54224696823273
1224.0,107.11978519931967
1225.0,86.38523100881372
1226.0,67.20575475485502
1227.0,56.82609245255327
1228.0,59.324966963952214
1229.0,56.54954361232769
1230.0,36.25622577155517
1231.0,22.277090148411656
1232.0,6.250007010770397
1233.0,3.206192920187992
1234.0,7.332942076864429
1235.0,48.59579316501716
1236.0,13.752528239434417
1237.0,19.385612920307764
1238.0,35.191155474323445
1239.0,30.525103503745857
1240.0,20.39500439702073
1241.0,33.517312640543665
1242.0,49.733974663823744
1243.0,37.631873200332215
1244.0,37.58940988058974
1245.0,40.812009821641574
1246.0,41.069080763809495
1247.0,41.56049184539103
1248.0,43.908885487467174
1249.0,49.50477371926341
1250.0,45.03314053813704
1251.0,24.558521723411424
1252.0,34.58375566941213
1253.0,26.5729011715719
1254.0,35.39764125285032
1255.0,60.26925188970495
1256.0,28.93036760141914
1257.0,20.71969767579265
1258.0,41.847690111709746
1259.0,40.29871567302153
1260.0,26.184171608980197
1261.0,16.755010849743023
1262.0,11.113142311252645
1263.0,7.105073138417381
1264.0,23.461611019512794
1265.0,16.266966538272186
1266.0,16.522460704477368
1267.0,14.6775635513855
1268.0,3.8624984197472063
1269.0,2.1243012972749122
1270.0,13.711209082013568
1271.0,54.52794369157235
1272.0,49.3016335503642
1273.0,36.87531549519259
1274.0,49.96273754681172
1275.0,37.68377401286208
1276.0,12.431059286926944
1277.0,28.87226925943495
1278.0,11.247107615513604
1279.0,26.259748122364513
1280.0,23.395780060827633
1281.0,23.51243187511262
1282.0,41.585271531907665
1283.0,32.41627599530921
1284.0,27.10187803533471
1285.0,18.76256435210671
1286.0,43.03854027778198
1287.0,23.52722561348121
1288.0,33.30370214820257
1289.0,17.409325835526513
1290.0,30.245690584632403
1291.0,19.747186496203646
1292.0,17.61979532472474
1293.0,16.30217906075204
1294.0,20.559432452603907
1295.0,41.83921260292693
1296.0,40.34742931897451
1297.0,6.91721297078487
1298.0,2.0749065279262453
1299.0,10.108056867432097
1300.0,26.812753079369287
1301.0,0.0
1302.0,0.0
1303.0,0.0
1304.0,0.0
1305.0,0.0
1306.0,0.0
1307.0,0.0
1308.0,0.0
1309.0,0.0
1310.0,0.0
1311.0,0.0
1312.0,0.0
1313.0,0.0
1314.0,0.0
1315.0,0.0
1316.0,0.0
1317.0,0.0
1318.0,0.0
1319.0,0.0
1320.0,0.0
1321.0,0.0
1322.0,0.0
1323.0,0.0
1324.0,0.0
1325.0,0.0
1326.0,0.0
1327.0,0.0
1328.0,0.0
1329.0,0.0
1330.0,0.0
1331.0,0.0
1332.0,0.0
1333.0,0.0
1334.0,0.0
1335.0,0.0
1336.0,0.0
1337.0,0.0
1338.0,0.0
1339.0,0.0
1340.0,0.0
1341.0,0.0
1342.0,0.0
1343.0,0.0
1344.0,0.0
1345.0,0.0
1346.0,0.0
1347.0,0.0
1348.0,0.0
1349.0,0.0
1350.0,0.0
1351.0,0.0
1352.0,0.0
1353.0,0.0
1354.0,0.0
1355.0,0.0
1356.0,0.0
1357.0,0.0
1358.0,0.0
1359.0,0.0
1360.0,0.0
1361.0,0.0
1362.0,0.0
1363.0,0.0
1364.0,0.0
1365.0,0.0
1366.0,0.0
1367.0,0.0
1368.0,0.0
1369.0,0.0
1370.0,0.0
1371.0,0.0
1372.0,0.0
1373.0,0.0
1374.0,0.0
1375.0,0.0
1376.0,0.0
1377.0,0.0
1378.0,0.0
1379.0,0.0
1380.0,0.0
1381.0,0.0
1382.0,0.0
1383.0,0.0
1384.0,0.0
1385.0,0.0
1386.0,0.0
1387.0,0.0
1388.0,0.0
1389.0,0.0
1390.0,0.0
1391.0,0.0
1392.0,0.0
1393.0,0.0
1394.0,0.0
1395.0,0.0
1396.0,0.0
1397.0,0.0
1398.0,0.0
1399.0,0.0
1400.0,0.0
1401.0,0.0
1402.0,0.0
1403.0,0.0
1404.0,0.0
1405.0,0.0
1406.0,0.0
1407.0,0.0
1408.0,0.0
1409.0,0.0
1410.0,0.0
1411.0,0.0
1412.0,0.0
1413.0,0.0
1414.0,0.0
1415.0,0.0
1416.0,0.0
1417.0,0.0
1418.0,0.0
1419.0,0.0
1420.0,0.0
1421.0,0.0
1422.0,0.0
1423.0,0.0
1424.0,0.0
1425.0,0.0
1426.0,0.0
1427.0,0.0
1428.0,0.0
1429.0,0.0
1430.0,0.0
1431.0,0.0
1432.0,0.0
1433.0,0.0
1434.0,0.0
1435.0,0.0
1436.0,0.0
1437.0,0.0
1438.0,0.0
1439.0,0.0
1440.0,0.0
1441.0,0.0
1442.0,0.0
1443.0,0.0
1444.0,0.0
1445.0,0.0
1446.0,0.0
1447.0,0.0
1448.0,0.0
1449.0,0.0
1450.0,0.0
1451.0,0.0
1452.0,0.0
1453.0,0.0
1454.0,0.0
1455.0,0.0
1456.0,0.0
1457.0,0.0
1458.0,0.0
1459.0,0.0
1460.0,0.0
1461.0,0.0
1462.0,0.0
1463.0,0.0
1464.0,0.0
1465.0,0.0
1466.0,0.0
1467.0,0.0
1468.0,0.0
1469.0,0.0
1470.0,0.0
1471.0,0.0
1472.0,0.0
1473.0,0.0
1474.0,0.0
1475.0,0.0
1476.0,0.0
1477.0,0.0
1478.0,0.0
1479.0,0.0
1480.0,0.0
1481.0,0.0
1482.0,0.0
1483.0,0.0
1484.0,0.0
1485.0,0.0
1486.0,0.0
1487.0,0.0
1488.0,0.0
1489.0,0.0
1490.0,0.0
1491.0,0.0
1492.0,0.0
1493.0,0.0
1494.0,0.0
1495.0,0.0
1496.0,0.0
1497.0,0.0
1498.0,0.0
1499.0,0.0
1500.0,0.0
1501.0,0.0
1502.0,0.0
1503.0,0.0
1504.0,0.0
1505.0,0.0
1506.0,0.0
1507.0,0.0
1508.0,0.0
1509.0,0.0
1510.0,0.0
1511.0,0.0
1512.0,0.0
1513.0,0.0
1514.0,0.0
1515.0,0.0
1516.0,0.0
1517.0,0.0
1518.0,0.0
1519.0,0.0
1520.0,0.0
1521.0,0.0
1522.0,0.0
1523.0,0.0
1524.0,0.0
1525.0,0.0
1526.0,0.0
1527.0,0.0
1528.0,0.0
1529.0,0.0
1530.0,0.0
1531.0,0.0
1532.0,0.0
1533.0,0.0
1534.0,0.0
1535.0,0.0
1536.0,0.0
1537.0,0.0
1538.0,0.0
1539.0,0.0
1540.0,0.0
1541.0,0.0
1542.0,0.0
1543.0,0.0
1544.0,0.0
1545.0,0.0
1546.0,0.0
1547.0,0.0
1548.0,0.0
1549.0,0.0
1550.0,0.0
1551.0,0.0
1552.0,0.0
1553.0,0.0
1554.0,0.0
1555.0,0.0
1556.0,0.0
1557.0,0.0
1558.0,0.0
1559.0,0.0
1560.0,0.0
1561.0,0.0
1562.0,0.0
1563.0,0.0
1564.0,0.0
1565.0,0.0
1566.0,0.0
1567.0,0.0
1568.0,0.0
1569.0,0.0
1570.0,0.0
1571.0,0.0
1572.0,0.0
1573.0,0.0
1574.0,0.0
1575.0,0.0
1576.0,0.0
1577.0,0.0
1578.0,0.0
1579.0,0.0
1580.0,0.0
1581.0,0.0
1582.0,0.0
1583.0,0.0
1584.0,0.0
1585.0,0.0
1586.0,0.0
1587.0,0.0
1588.0,0.0
1589.0,0.0
1590.0,0.0
1591.0,0.0
1592.0,0.0
1593.0,0.0
1594.0,0.0
1595.0,0.0
1596.0,0.0
1597.0,0.0
1598.0,0.0
1599.0,0.0
