0.0,0.0
1.0,0.0
2.0,0.0
3.0,0.0
4.0,0.0
5.0,0.0
6.0,0.0
7.0,0.0
8.0,0.0
9.0,0.0
10.0,0.0
11.0,0.0
12.0,0.0
13.0,0.0
14.0,0.0
15.0,0.0
16.0,0.0
17.0,0.0
18.0,0.0
19.0,0.0
20.0,0.0
21.0,0.0
22.0,0.0
23.0,0.0
24.0,0.0
25.0,0.0
26.0,0.0
27.0,0.0
28.0,0.0
29.0,0.0
30.0,0.0
31.0,0.0
32.0,0.0
33.0,0.0
34.0,0.0
35.0,0.0
36.0,0.0
37.0,0.0
38.0,0.0
39.0,0.0
40.0,0.0
41.0,0.0
42.0,0.0
43.0,0.0
44.0,0.0
45.0,0.0
46.0,0.0
47.0,0.0
48.0,0.0
49.0,0.0
50.0,0.0
51.0,0.0
52.0,0.0
53.0,0.0
54.0,0.0
55.0,0.0
56.0,0.0
57.0,0.0
58.0,0.0
59.0,0.0
60.0,0.0
61.0,0.0
62.0,0.0
63.0,0.0
64.0,0.0
65.0,0.0
66.0,0.0
67.0,0.0
68.0,0.0
69.0,0.0
70.0,0.0
71.0,0.0
72.0,0.0
73.0,0.0
74.0,0.0
75.0,0.0
76.0,0.0
77.0,0.0
78.0,0.0
79.0,0.0
80.0,0.0
81.0,0.0
82.0,0.0
83.0,0.0
84.0,0.0
85.0,0.0
86.0,0.0
87.0,0.0
88.0,0.0
89.0,0.0
90.0,0.0
91.0,0.0
92.0,0.0
93.0,0.0
94.0,0.0
95.0,0.0
96.0,0.0
97.0,0.0
98.0,0.0
99.0,0.0
100.0,0.0
101.0,0.0
102.0,0.0
103.0,0.0
104.0,0.0
105.0,0.0
106.0,0.0
107.0,0.0
108.0,0.0
109.0,0.0
110.0,0.0
111.0,0.0
112.0,0.0
113.0,0.0
114.0,0.0
115.0,0.0
116.0,0.0
117.0,0.0
118.0,-18.527479157680578
119.0,0.38250966900701916
120.0,1.2635711435422414
121.0,10.422079098097555
122.0,18.347160321545253
123.0,28.057200646494017
124.0,32.32857857357359
125.0,30.6680176220341
126.0,30.832795874602162
127.0,32.61939391719104
128.0,37.50954277563511
129.0,44.38612532110727
130.0,50.516894920495474
131.0,55.03506880921137
132.0,60.44198994761492
133.0,68.18231759359676
134.0,75.1265498087366
135.0,77.96411285702193
136.0,81.84203476623804
137.0,87.90488932300512
138.0,94.76275015048606
139.0,100.21548806661023
140.0,98.98247218168122
141.0,86.2203186257473
142.0,69.11609150307098
143.0,52.68608590347092
144.0,43.76232082750749
145.0,37.57313586989952
146.0,31.499208842119884
147.0,24.63644155944563
148.0,17.72051415178281
149.0,11.079198182902209
150.0,7.20692257146105
151.0,7.2982688272921425
152.0,10.221829281424574
153.0,4.858893304849193
154.0,3.065667725837113
155.0,5.937209698002697
156.0,3.027772052208499
157.0,0.2783815896830463
158.0,4.010258833204156
159.0,6.4814616038814234
160.0,6.213536172377714
161.0,4.350401778985899
162.0,0.8442777911405821
163.0,3.5103636857232186
164.0,1.850121205712668
165.0,2.2327613603930576
166.0,0.5231612123483518
167.0,1.8328744576824336
168.0,0.8426292316086651
169.0,1.527666467827316
170.0,2.59609957135561
171.0,4.637178205702858
172.0,6.086477009016664
173.0,5.833312360541625
174.0,9.117629011750692
175.0,8.482253828113276
176.0,6.499715960199925
177.0,6.544797329842843
178.0,8.275588534219125
179.0,10.080625487371885
180.0,10.760532305945237
181.0,10.944966868583098
182.0,12.300742824852733
183.0,15.230840467888832
184.0,16.38033901953299
185.0,18.053125976424138
186.0,21.4658276426792
187.0,18.611955908885506
188.0,16.613044059218783
189.0,16.065840424174244
190.0,16.373685508173732
191.0,17.41213031640992
192.0,19.516776480402477
193.0,20.1748702861836
194.0,19.313030561423215
195.0,18.327371859803183
196.0,18.91045512947357
197.0,20.61346520093945
198.0,19.3292966246494
199.0,14.239042007635295
200.0,12.739125309377826
201.0,12.28533783878016
202.0,11.144091283892049
203.0,10.072004623137005
204.0,11.020842018631058
205.0,10.81315903704711
206.0,9.5970634916896
207.0,8.4785835478005
208.0,7.509290350075829
209.0,3.721926140822768
210.0,4.589190038668219
211.0,4.315511633349449
212.0,1.8021447338132708
213.0,1.2008047112995526
214.0,1.0733990709275436
215.0,1.5985949155269101
216.0,2.619607962695882
217.0,1.511609967466526
218.0,2.557439324533667
219.0,1.4280041215617807
220.0,3.0096544624044164
221.0,5.934912982020493
222.0,3.5725389553764946
223.0,4.967749345434765
224.0,7.8572304886542765
225.0,9.647088284635172
226.0,9.363545991013966
227.0,12.94062743226597
228.0,11.669639412084866
229.0,11.465565510277818
230.0,14.694094655053037
231.0,17.79467803978211
232.0,20.857426853351754
233.0,22.878048951317684
234.0,26.01866591456814
235.0,31.54133243590487
236.0,34.31322917312981
237.0,35.61465055685281
238.0,37.67461529344132
239.0,39.18346720815221
240.0,36.186969042820316
241.0,33.56078563316172
242.0,32.80003142865428
243.0,30.748237006413817
244.0,26.877900730079798
245.0,32.41916349902033
246.0,34.527016415462114
247.0,36.57614256796409
248.0,40.46137962905069
249.0,45.659345032928634
250.0,54.09754538757648
251.0,60.23559974208651
252.0,62.477637934744955
253.0,59.54430373841408
254.0,46.81711941342318
255.0,31.320099973366048
256.0,18.458681095032134
257.0,9.67452326172527
258.0,4.373554755291309
259.0,2.949181001971292
260.0,3.405757942039103
261.0,2.0668453159967966
262.0,0.8093057560496512
263.0,0.36306569870023303
264.0,0.38056791022455794
265.0,0.04101325832062963
266.0,1.2731269378160068
267.0,2.0028693823638624
268.0,4.176648141308341
269.0,4.728815126066057
270.0,6.736448166368776
271.0,9.625788051242017
272.0,9.229471248837525
273.0,9.530792294341026
274.0,10.250066079397527
275.0,10.446928534846467
276.0,9.510305762139124
277.0,8.847696248706542
278.0,9.981203320467761
279.0,10.804611564475994
280.0,11.54294239381343
281.0,13.277355201077313
282.0,13.9057458877219
283.0,16.041826987793026
284.0,17.912875263192802
285.0,18.36308141518381
286.0,18.003780977734714
287.0,19.157538421204787
288.0,20.82936508166761
289.0,23.855009484115154
290.0,27.791090695789293
291.0,27.32419594037437
292.0,27.033503414037245
293.0,28.801859878031113
294.0,32.76633214485964
295.0,37.710313938761814
296.0,41.01321989166396
297.0,47.13114708309951
298.0,55.15012692258434
299.0,62.52988700505035
300.0,68.24598044206996
301.0,80.96919530198373
302.0,95.75542144536217
303.0,110.9430590539269
304.0,127.23032337754461
305.0,145.6681233408458
306.0,161.94670671355678
307.0,174.16483318522378
308.0,187.64702138621684
309.0,205.46108762186282
310.0,216.45573447383032
311.0,231.06369352141118
312.0,251.4808239454948
313.0,275.6088634241614
314.0,301.50365707510934
315.0,331.2600220070659
316.0,369.76402445069925
317.0,418.0820256701621
318.0,474.13326407313053
319.0,534.3862350912535
320.0,597.6024737575452
321.0,635.9015447460017
322.0,625.44008647686
323.0,553.8055669950791
324.0,421.7118449188884
325.0,288.77041539597593
326.0,187.81541319120242
327.0,121.17915365929775
328.0,79.33582766567169
329.0,55.93504322104081
330.0,40.02878982433324
331.0,28.186709428844132
332.0,20.06785028970969
333.0,16.673635598120224
334.0,12.362638231253674
335.0,6.405594275959978
336.0,3.041104733586758
337.0,3.384083118598419
338.0,3.6242420962521886
339.0,2.091734276086719
340.0,0.815793458596753
341.0,0.20768397064682634
342.0,0.8855219184391651
343.0,0.8200004258516171
344.0,2.093307884920595
345.0,1.2478210790885733
346.0,0.3446374979102875
347.0,1.3359920754096328
348.0,1.1709993080710421
349.0,0.8600497173082363
350.0,0.7160719491763523
351.0,0.538784260713806
352.0,0.10145081755094923
353.0,0.5599626558781782
354.0,0.13843255364918594
355.0,1.800324579912469
356.0,3.037191312554488
357.0,2.371672458247217
358.0,2.634766800700115
359.0,0.7102681893329502
360.0,1.9799583789382333
361.0,3.8489370679463493
362.0,4.688246937589989
363.0,7.3722025410580665
364.0,6.653439399594989
365.0,8.254658620731764
366.0,12.159634487917993
367.0,13.028151078280473
368.0,16.345650040491098
369.0,19.334221395299704
370.0,22.72321635579764
371.0,27.277888909385762
372.0,33.12856147226666
373.0,39.002062852551674
374.0,45.77061845869278
375.0,55.42824387364508
376.0,68.57363140673415
377.0,83.85345306577037
378.0,103.65142016755122
379.0,123.11413316677022
380.0,140.92523771193927
381.0,157.63432655702022
382.0,173.63503579296219
383.0,179.7817799706824
384.0,189.91933391870825
385.0,199.70358622019262
386.0,209.44934455727304
387.0,235.3282661139983
388.0,262.6010085937339
389.0,295.36594217941996
390.0,333.4878735165551
391.0,376.30717388612726
392.0,425.927935830117
393.0,467.009815351268
394.0,492.95998146389366
395.0,497.15613922931163
396.0,471.4466056946723
397.0,403.7026309860065
398.0,325.33958074307776
399.0,249.85896777049487
400.0,187.76192951418585
401.0,142.75771935312633
402.0,108.3005043850172
403.0,86.87124899384918
404.0,70.24455089165232
405.0,56.57387528734676
406.0,46.62559351004813
407.0,40.53872023045291
408.0,34.51230535843216
409.0,32.90731824970261
410.0,31.61854333917689
411.0,28.14314435119847
412.0,28.81612553209543
413.0,25.715420863428292
414.0,25.87925755620029
415.0,26.94844943552133
416.0,25.470632056757026
417.0,22.87779205824482
418.0,22.82834828206025
419.0,23.03590659827998
420.0,23.571226873106426
421.0,23.656292412354393
422.0,20.45786983708815
423.0,16.208873211985345
424.0,14.998477271819192
425.0,16.52273222542986
426.0,18.050874412540747
427.0,15.61671484650657
428.0,17.270058097134452
429.0,18.873163734201327
430.0,20.987319065832626
431.0,23.489179410341517
432.0,24.69537765924113
433.0,27.631379290404087
434.0,29.758470410071652
435.0,31.821084931984615
436.0,36.72773171698587
437.0,45.797018768921575
438.0,50.973954607013745
439.0,54.14412758100771
440.0,59.71694985266959
441.0,66.50868402468208
442.0,71.36718334603944
443.0,77.94422061219369
444.0,78.20513871450238
445.0,74.29216076392682
446.0,69.4956926381592
447.0,65.23005972645032
448.0,57.247751450075654
449.0,54.65308589986101
450.0,46.347951836902794
451.0,35.57914966735628
452.0,28.56249373880145
453.0,22.919358191610847
454.0,16.938931498953433
455.0,12.97771034165373
456.0,10.839457841510104
457.0,9.454140866592525
458.0,8.24256857649493
459.0,6.39624607766103
460.0,3.901022351446373
461.0,1.9783215212831702
462.0,1.9088184063636393
463.0,3.6295234715732545
464.0,0.1381464242542914
465.0,4.345590245831982
466.0,2.531036257287511
467.0,4.0636233025109645
468.0,2.5476912911476215
469.0,1.7053261623283062
470.0,1.3869527296724653
471.0,0.4024224122287101
472.0,1.1742829732174953
473.0,0.7806879046565413
474.0,0.32676146808194073
475.0,4.1304199668614405
476.0,4.254980512248771
477.0,3.898491137449716
478.0,6.628337053835221
479.0,7.587885893244721
480.0,5.6387198744742015
481.0,7.401821345923457
482.0,7.7748785115644115
483.0,6.538299322161735
484.0,10.058505828699898
485.0,10.493131083667164
486.0,14.347533527360785
487.0,15.272419943606307
488.0,14.715138086355852
489.0,17.78763404219779
490.0,15.502455891279533
491.0,14.34181791262004
492.0,15.047829960547377
493.0,17.885547869715708
494.0,21.8246200410439
495.0,21.93489528981625
496.0,21.249827462480585
497.0,24.729268218043867
498.0,28.346190495828804
499.0,30.476482143703223
500.0,33.44671410678144
501.0,32.54577507454011
502.0,39.11885555379754
503.0,43.91623823446924
504.0,42.485899032526426
505.0,37.51286158944049
506.0,38.4476104534513
507.0,35.65132527728392
508.0,37.59170260657932
509.0,41.745374860444144
510.0,44.30998898386805
511.0,49.60281887396676
512.0,50.695649202881235
513.0,51.224217637176416
514.0,55.0387222870659
515.0,60.75286928941124
516.0,64.58103069981762
517.0,67.56785761202393
518.0,78.22590884366016
519.0,81.89307421892254
520.0,85.19709656736178
521.0,96.14031549689895
522.0,98.96050102731482
523.0,106.54897366353858
524.0,110.97084352285204
525.0,112.15748467031364
526.0,112.41151579928393
527.0,110.82727329022313
528.0,102.92719521836744
529.0,94.87975201712747
530.0,84.76124843668659
531.0,73.98695785970169
532.0,65.59247206015756
533.0,59.64275842718257
534.0,48.26073434884938
535.0,41.68502223516815
536.0,36.73622185768777
537.0,30.851341290679194
538.0,26.61356290697407
539.0,23.012248689250566
540.0,19.725677744646912
541.0,17.139595077688707
542.0,14.667784029283558
543.0,12.48140026903872
544.0,13.035062587049792
545.0,7.959084037016646
546.0,4.779089052336938
547.0,2.425482201626493
548.0,0.009267451282764759
549.0,0.31432801908852703
550.0,0.5024470578107242
551.0,1.2152056419505082
552.0,1.9598595122307036
553.0,2.4424126586705723
554.0,4.265012639101413
555.0,3.9019483411266482
556.0,4.871696022299936
557.0,3.0045969822902436
558.0,1.2098875162760339
559.0,1.3237365550214462
560.0,2.113866872007719
561.0,3.4818093318479995
562.0,0.5000197661664374
563.0,0.6612127921159607
564.0,0.512526051105331
565.0,0.5896768600466339
566.0,1.8058574744940108
567.0,0.9024844227750429
568.0,0.9848033615352976
569.0,3.0284152426992623
570.0,5.131273930287324
571.0,8.123689951237012
572.0,12.205772966592527
573.0,11.11193926980447
574.0,12.151260895053078
575.0,14.246015150755376
576.0,17.36294755131795
577.0,24.23446584703345
578.0,24.396531183048207
579.0,28.373405160453142
580.0,31.709011906034778
581.0,34.86596687894791
582.0,38.17415106983873
583.0,37.780425492477306
584.0,41.21304389167101
585.0,47.263487039465794
586.0,49.033371010531546
587.0,50.62857328110412
588.0,57.380139014254674
589.0,60.648349770426776
590.0,63.58984623673512
591.0,64.92445196304162
592.0,64.90406918568301
593.0,64.53629039471443
594.0,65.51231915213648
595.0,69.17354563306723
596.0,68.1268742663826
597.0,66.10418183422514
598.0,62.688459583610815
599.0,59.88561994941814
600.0,62.484065775026004
601.0,59.8940638101551
602.0,57.086860424284815
603.0,55.78150777437748
604.0,53.67911506688399
605.0,50.424863705079616
606.0,50.16997678911154
607.0,47.56113484169283
608.0,44.44482943464627
609.0,42.2107305885489
610.0,42.7211774922006
611.0,44.798886893426804
612.0,42.002759905840136
613.0,40.77189825795487
614.0,43.91737606828346
615.0,45.30476131462436
616.0,44.144493068845655
617.0,43.672370781233425
618.0,44.575647701158196
619.0,42.18608871312272
620.0,42.603500922461535
621.0,41.10383600950148
622.0,36.139946311719925
623.0,31.016233266062375
624.0,26.515406346160283
625.0,20.468336481111322
626.0,15.320717586386808
627.0,12.174061847329554
628.0,10.45087495221695
629.0,8.929005329421148
630.0,8.665599955820973
631.0,9.215660250764918
632.0,11.288917033265312
633.0,11.448224303906272
634.0,11.172709867699783
635.0,14.385788262660824
636.0,10.826714202524943
637.0,14.734512611658154
638.0,16.840364028762792
639.0,18.34502825481226
640.0,20.561330532794717
641.0,20.985476209039707
642.0,21.86854972909928
643.0,23.096726572777825
644.0,23.863278395460384
645.0,25.052336672002244
646.0,26.159176188599535
647.0,25.77899609122559
648.0,28.8270525124139
649.0,28.453542613149317
650.0,28.404188636480523
651.0,31.303291284888267
652.0,34.832371359001925
653.0,35.63119881072083
654.0,38.5881729322063
655.0,42.07803952544512
656.0,47.50647486070728
657.0,56.52476330437097
658.0,68.37023298217203
659.0,80.38690475615881
660.0,92.17028733303324
661.0,111.52180622913093
662.0,127.6998116952114
663.0,149.86646909726014
664.0,178.79258875633798
665.0,207.61454120142554
666.0,248.30362524690455
667.0,294.22128368844153
668.0,340.36467134559337
669.0,391.39250211116007
670.0,447.96754899954595
671.0,504.66802417385077
672.0,555.3200247364367
673.0,622.2769161703629
674.0,694.4827331359821
675.0,782.9519582038362
676.0,887.7633358448869
677.0,1002.1027042406391
678.0,1128.1032200476436
679.0,1267.5171470384878
680.0,1398.8860526458225
681.0,1501.1934752301909
682.0,1554.2742494373736
683.0,1527.9256537230106
684.0,1389.4847729901082
685.0,1185.7377324421363
686.0,962.5105954967894
687.0,762.706204156083
688.0,602.1163170245436
689.0,481.1451131333945
690.0,391.856672051847
691.0,323.2626619591065
692.0,268.92041306321704
693.0,229.03753523975797
694.0,197.94894957826577
695.0,171.45570256028105
696.0,149.0204676456466
697.0,129.21996376002542
698.0,110.40556630287898
699.0,99.85380613863603
700.0,89.59354349908594
701.0,77.26724642117546
702.0,67.55063154288993
703.0,59.91726240862468
704.0,50.439979782237636
705.0,45.759408441655275
706.0,40.04687257184878
707.0,34.28261806809658
708.0,30.57745003577658
709.0,24.99067486401661
710.0,18.710028539064318
711.0,14.779845780310447
712.0,14.12906039601069
713.0,12.986106007295575
714.0,10.194677333103545
715.0,8.130244314282944
716.0,5.338596152480914
717.0,6.234626853784939
718.0,3.1911668044748596
719.0,0.5349797738456576
720.0,0.5256902129363301
721.0,1.0443856014411235
722.0,0.7883511029962275
723.0,0.8650685987357764
724.0,2.580809285239963
725.0,1.3973368643500113
726.0,0.5107545577861003
727.0,2.3708379680714735
728.0,2.9420981498958807
729.0,2.7968595434236727
730.0,4.415639765833415
731.0,3.575386463896354
732.0,1.5732121447580827
733.0,1.5433691217205125
734.0,3.2880641815585707
735.0,0.5802912610306082
736.0,0.21612909910050984
737.0,0.2113922132715155
738.0,0.3422401136653771
739.0,0.5942595825133143
740.0,2.1171265527904453
741.0,1.29963968081067
742.0,4.094047031236469
743.0,4.70537113649266
744.0,5.01830571768172
745.0,5.76190557033213
746.0,7.613351797677583
747.0,10.230352920953633
748.0,11.189088745827267
749.0,9.990884332788005
750.0,9.214203344872221
751.0,8.858169165409363
752.0,10.806311584770533
753.0,14.712437936075363
754.0,16.180726943678945
755.0,15.501851154809831
756.0,19.232812085022463
757.0,24.15358024390556
758.0,26.349935455149225
759.0,27.48347911203204
760.0,29.878227513598553
761.0,31.283583717211986
762.0,34.8887748906246
763.0,38.315559077805645
764.0,41.03893262142025
765.0,43.501358729472095
766.0,46.22100584943602
767.0,49.32897860392516
768.0,51.38483422244673
769.0,50.34390794826673
770.0,48.881666506827735
771.0,43.471856375950686
772.0,40.18083044983466
773.0,38.98124774980808
774.0,32.33309994882374
775.0,31.987115629386683
776.0,31.15709476983978
777.0,25.17882498833582
778.0,22.416350565140206
779.0,22.816886911784565
780.0,21.04471722133322
781.0,17.522618627687393
782.0,17.346016998077776
783.0,15.578719607681478
784.0,14.505477314390065
785.0,13.989903724926581
786.0,12.211110606471756
787.0,8.91641701295187
788.0,7.153751551489559
789.0,5.734391175393441
790.0,5.418344077935204
791.0,5.344315080963641
792.0,5.2678058794000435
793.0,4.084578040976779
794.0,1.5396697216658815
795.0,2.4705674052173356
796.0,3.1899602725940523
797.0,4.353936031291373
798.0,3.0205771920623854
799.0,2.7796809419628055
800.0,2.676350615851147
801.0,0.9740093609657166
802.0,5.8232267293429425
803.0,0.1292166770489219
804.0,1.6094565817319635
805.0,4.973662116639337
806.0,4.962549962179342
807.0,2.114546808333966
808.0,0.3029291555525044
809.0,3.8893164254925527
810.0,1.6255361622182716
811.0,3.008060308283278
812.0,5.3138811654508915
813.0,3.758792442437053
814.0,1.8496989197696596
815.0,4.300523865692639
816.0,3.264855142548747
817.0,6.928343151280937
818.0,2.333001052835674
819.0,2.0994881136829195
820.0,2.6865305721219728
821.0,1.738815499912543
822.0,3.9191303617381172
823.0,6.810070776435708
824.0,1.4413823983458274
825.0,0.9613136572313588
826.0,0.9960057081438151
827.0,2.037940878326287
828.0,2.822267526574224
829.0,1.2055507856541259
830.0,0.93971253057362
831.0,1.4284256831502877
832.0,0.43636836894181613
833.0,1.7912876009288736
834.0,3.5656537859469197
835.0,2.699700848473245
836.0,0.16791554362299863
837.0,0.4851202335637118
838.0,4.262820296186445
839.0,1.690353905855123
840.0,1.9704450325424852
841.0,0.729378024691397
842.0,0.6961278191818978
843.0,3.131025257962376
844.0,2.5717074048612334
845.0,2.2496294447988534
846.0,4.620299373856428
847.0,3.5645830457247656
848.0,2.7887001596392254
849.0,2.6221570615822385
850.0,2.299854208838115
851.0,3.041876282323394
852.0,3.0801704952636055
853.0,0.8458413605009247
854.0,1.4343154201891404
855.0,2.8004550230501675
856.0,4.952573050242775
857.0,5.793802290793967
858.0,2.4477315933741277
859.0,5.7872538577568635
860.0,5.686512375151102
861.0,8.40870343185027
862.0,6.845816888285957
863.0,6.330669927649138
864.0,6.908891948417947
865.0,7.692490580736777
866.0,11.54606166136473
867.0,7.914368063272033
868.0,15.066957665844265
869.0,12.604403419030612
870.0,15.79220250815876
871.0,18.922049069436458
872.0,17.83460696890875
873.0,19.341127742288887
874.0,19.823099560252167
875.0,20.624659997661382
876.0,25.5851319027909
877.0,27.88000923806838
878.0,29.474484924345205
879.0,31.642953178960006
880.0,34.24070676190625
881.0,37.3647906842651
882.0,36.97817005421909
883.0,36.227026293878524
884.0,35.487643841564896
885.0,36.70828736335175
886.0,38.41004678214794
887.0,39.101503909981865
888.0,40.52861687259409
889.0,44.49329349185187
890.0,40.9486655441278
891.0,46.94559592696814
892.0,47.36812267849547
893.0,44.48571803226048
894.0,45.03687098729078
895.0,47.183005288232685
896.0,46.87322499585872
897.0,53.37950770748674
898.0,52.88754919509331
899.0,58.06066764805556
900.0,62.44177145399871
901.0,62.53828986362498
902.0,65.79277833991
903.0,74.25734349147496
904.0,74.55379678237766
905.0,84.35188686810379
906.0,90.57792750310762
907.0,99.78656518474378
908.0,104.14851939141322
909.0,106.83720879716313
910.0,112.86245819669256
911.0,120.3136184355807
912.0,123.95153113357644
913.0,130.1144676648622
914.0,134.09126397945872
915.0,134.2220981045679
916.0,132.8776681043603
917.0,131.42382607458384
918.0,126.97422190814113
919.0,118.08042685719832
920.0,110.60972710953183
921.0,95.86057883058909
922.0,88.41028196477542
923.0,82.63575589107583
924.0,75.89794374691914
925.0,69.49092843374444
926.0,62.040817991018365
927.0,53.91602386159583
928.0,56.52262702875883
929.0,50.3805295867188
930.0,48.43842819699387
931.0,42.35280553880902
932.0,38.239079716462314
933.0,34.628578159101565
934.0,29.357523483715966
935.0,27.611568473396723
936.0,30.374227466465758
937.0,24.811925377283927
938.0,20.151263367240627
939.0,20.14714056573764
940.0,18.354186169052017
941.0,17.929230158601076
942.0,17.676771683586644
943.0,12.11165065174447
944.0,9.897290496234566
945.0,11.909978957716923
946.0,8.714549443520278
947.0,6.523694091219719
948.0,6.665277053582608
949.0,5.652879420912717
950.0,1.7887960948316928
951.0,1.128313239212129
952.0,2.206456479041669
953.0,3.984210230063405
954.0,2.5377943661014672
955.0,2.6175296193286135
956.0,3.4096935581284833
957.0,2.822418717352506
958.0,0.52703162993831
959.0,2.187936707398975
960.0,3.6397477368208753
961.0,4.366352387036733
962.0,0.641891291936716
963.0,5.0165937413563455
964.0,3.9157066105801634
965.0,3.75450992499071
966.0,4.319494380519367
967.0,2.7163887721249553
968.0,3.160172047159535
969.0,4.476961221176699
970.0,0.9631555557003425
971.0,0.7379439873632022
972.0,1.872174665311024
973.0,2.401758566284852
974.0,2.144187883491634
975.0,2.892423683986099
976.0,3.237940880623137
977.0,1.801039076864731
978.0,2.474215886942291
979.0,1.7842705798497736
980.0,1.487221182279109
981.0,0.31117857750469735
982.0,4.494281769634608
983.0,5.688150638970488
984.0,4.278111416451776
985.0,7.307093641779143
986.0,10.959050502226761
987.0,11.64004977703894
988.0,15.63824930189743
989.0,13.084709086029076
990.0,18.586276505683028
991.0,28.026145299227238
992.0,32.142561161903714
993.0,33.196121785563754
994.0,39.18701479967575
995.0,50.552971963123774
996.0,59.427097174076664
997.0,68.11399367900951
998.0,76.11507433285433
999.0,82.79455313024616
1000.0,88.2145115444699
1001.0,94.03653852910095
1002.0,101.76949207915001
1003.0,110.48207037112049
1004.0,119.57610533945353
1005.0,122.264
1006.0,133.35489365532035
1007.0,136.57390420230178
1008.0,134.55006172077893
1009.0,132.92005570518475
1010.0,129.76908035000395
1011.0,122.00881357733893
1012.0,113.87844970764802
1013.0,98.24721133735483
1014.0,86.62158951242738
1015.0,72.81072999668264
1016.0,61.29505611902221
1017.0,54.27606090338287
1018.0,46.79655053456294
1019.0,35.498123561023384
1020.0,26.83674703339517
1021.0,29.1329769071486
1022.0,20.498471851958087
1023.0,19.371399429027793
1024.0,21.22269084215871
1025.0,17.74881087521685
1026.0,13.855347894101381
1027.0,11.158596265330768
1028.0,9.632884460623343
1029.0,10.750612154428287
1030.0,13.077659903765774
1031.0,10.028979232820955
1032.0,17.839933879369973
1033.0,23.65130774736634
1034.0,27.41721800308848
1035.0,33.65859458650153
1036.0,42.11154276021595
1037.0,49.01998685514571
1038.0,52.45263381619572
1039.0,58.354120660596905
1040.0,73.10977028772307
1041.0,79.46718477084372
1042.0,86.33525439325899
1043.0,101.41125508504784
1044.0,117.93161275573608
1045.0,137.848190107533
1046.0,161.10920396488052
1047.0,184.63340072528194
1048.0,214.3073497854848
1049.0,248.87193478501828
1050.0,295.0910352835328
1051.0,334.2849390566041
1052.0,380.72533099998964
1053.0,433.6765232379922
1054.0,499.8562178981511
1055.0,573.7468397004457
1056.0,648.282999877189
1057.0,731.6391806932547
1058.0,825.677730798305
1059.0,913.3471198443308
1060.0,1003.0071895796902
1061.0,1102.7983913411408
1062.0,1206.1789130588127
1063.0,1299.9548854141642
1064.0,1374.9701332271475
1065.0,1428.8707551866219
1066.0,1456.7939249487602
1067.0,1442.7750601750386
1068.0,1382.7308718421486
1069.0,1314.419430068965
1070.0,1196.3410937448866
1071.0,1084.757765340601
1072.0,972.0771088307688
1073.0,858.3534735306228
1074.0,754.6224760693234
1075.0,665.654866161226
1076.0,590.227703716049
1077.0,529.5001434661274
1078.0,470.29782854001013
1079.0,429.2906317103338
1080.0,380.03429608683155
1081.0,337.5339463693445
1082.0,309.6263785480291
1083.0,282.68437653525626
1084.0,254.418753541558
1085.0,230.2819271634531
1086.0,206.96084379032638
1087.0,184.45263427549102
1088.0,179.87561662582735
1089.0,152.8189857862285
1090.0,134.37489983500166
1091.0,127.49805002074658
1092.0,121.87245488365288
1093.0,107.91057354128145
1094.0,98.41557472579976
1095.0,96.48692483471748
1096.0,85.5415095982295
1097.0,78.34659694705701
1098.0,72.204648849838
1099.0,67.22716776651886
1100.0,69.84313936258975
1101.0,66.32899749219122
1102.0,64.84954287488243
1103.0,55.37130509233982
1104.0,46.87930471016893
1105.0,46.8130165443527
1106.0,43.1584322200781
1107.0,41.22347050749006
1108.0,39.41967150936668
1109.0,38.474953148449906
1110.0,37.297068999132264
1111.0,34.26440474970389
1112.0,29.035036758583548
1113.0,25.209162464546516
1114.0,25.136912140647677
1115.0,24.71971870135743
1116.0,21.79115931776374
1117.0,23.540429189336827
1118.0,28.58510791518907
1119.0,23.531901920753914
1120.0,19.007094158370077
1121.0,17.754035419351702
1122.0,26.58212666579713
1123.0,21.336650264176615
1124.0,17.119412932674283
1125.0,19.41136313734802
1126.0,19.79723999594413
1127.0,20.017509101148566
1128.0,11.70405639693876
1129.0,13.42772824696577
1130.0,11.7175793064312
1131.0,15.672040830261142
1132.0,14.732995215635619
1133.0,15.465993552940603
1134.0,16.162729593806578
1135.0,13.052651699511003
1136.0,10.293500489212999
1137.0,13.816777372429623
1138.0,18.31983136134694
1139.0,11.649651192573282
1140.0,9.76187536525057
1141.0,1.5010219722679057
1142.0,3.950200596137654
1143.0,6.9657171897687205
1144.0,4.515786072582147
1145.0,0.7184245849586659
1146.0,0.43932695025366775
1147.0,0.9136928929685413
1148.0,1.7756521888541088
1149.0,1.1145145381282895
1150.0,7.660959546490449
1151.0,6.926856837328185
1152.0,5.938118902403167
1153.0,4.105955750771975
1154.0,1.3361477405393676
1155.0,4.544427310630898
1156.0,6.908988654365597
1157.0,5.561132417420363
1158.0,4.837740255986467
1159.0,4.019752945608324
1160.0,0.12164101829357409
1161.0,0.8893529522819864
1162.0,3.795908120929836
1163.0,3.6999702595500525
1164.0,5.683668157364558
1165.0,11.750544754690727
1166.0,7.8012410153778164
1167.0,4.119065751610646
1168.0,9.5425970617674
1169.0,12.072847184983049
1170.0,6.536060230403224
1171.0,6.952360770000992
1172.0,10.67804137212536
1173.0,9.375211707600139
1174.0,13.674960725009761
1175.0,8.115375220056102
1176.0,12.875364802011878
1177.0,12.690715556374967
1178.0,23.017786709707966
1179.0,22.415946631851945
1180.0,15.581010084129048
1181.0,17.334317545007874
1182.0,21.349892593895266
1183.0,21.578457721407997
1184.0,23.135683176511836
1185.0,23.079867327565776
1186.0,28.905539559061022
1187.0,28.823512133691107
1188.0,24.373810669791563
1189.0,31.15830055157876
1190.0,31.70512884207785
1191.0,34.436494479473566
1192.0,35.29198377144586
1193.0,32.09891372220477
1194.0,33.96562207522544
1195.0,34.021399726822864
1196.0,28.26873993361732
1197.0,24.78198593728094
1198.0,23.080675076319718
1199.0,29.15116434400223
1200.0,31.46343584919592
1201.0,28.51386435531995
1202.0,30.101076695267356
1203.0,28.461374347284874
1204.0,25.714299703957916
1205.0,26.734652089326747
1206.0,27.72083323706918
1207.0,27.434110610357017
1208.0,25.257576668650902
1209.0,25.174195380123397
1210.0,26.980030675227596
1211.0,26.544178869757506
1212.0,28.38082984661244
1213.0,23.090197820131777
1214.0,32.68713909404577
1215.0,31.91431064439891
1216.0,27.73277202222058
1217.0,29.77817997090125
1218.0,32.185612154674885
1219.0,30.547755038942974
1220.0,20.0594302774047
1221.0,23.100029236889736
1222.0,29.035630385012475
1223.0,26.885062301789088
1224.0,28.52338662254302
1225.0,29.32211855324416
1226.0,30.19360197799075
1227.0,26.19107025613578
1228.0,30.476143366324877
1229.0,33.67469974157109
1230.0,28.09826252831746
1231.0,24.03503023688509
1232.0,27.01971709392892
1233.0,31.13487220266818
1234.0,26.55093125469257
1235.0,17.957696519301194
1236.0,23.286041672284107
1237.0,16.66265830345758
1238.0,13.379166613954796
1239.0,21.140027553228073
1240.0,21.368086324374968
1241.0,18.086025865100282
1242.0,14.997118179658683
1243.0,12.73718903943304
1244.0,11.58716388638775
1245.0,11.439114129057138
1246.0,13.590231784707502
1247.0,9.911705026247596
1248.0,7.83342521832701
1249.0,5.260269858009044
1250.0,7.116384330615652
1251.0,7.659708976731883
1252.0,4.59298289156488
1253.0,4.912749595756273
1254.0,6.084500784254059
1255.0,2.048850247357506
1256.0,1.948413266592781
1257.0,0.7034894728565082
1258.0,1.0753063475534996
1259.0,7.744501664384831
1260.0,5.6397020360222605
1261.0,7.88788226492112
1262.0,7.717909034965213
1263.0,13.313240577247377
1264.0,9.050415932138097
1265.0,16.375474535071138
1266.0,6.570603340040185
1267.0,2.6482099292611267
1268.0,9.746808392541231
1269.0,7.223695718933387
1270.0,0.7157660284352633
1271.0,9.528564862070665
1272.0,17.22433726290218
1273.0,9.126733305476693
1274.0,7.095797099461108
1275.0,11.770641900641408
1276.0,0.7480889669428672
1277.0,5.294659257139819
1278.0,5.353755212934799
1279.0,3.8250748890139827
1280.0,4.5962239758313554
1281.0,0.0
1282.0,0.0
1283.0,0.0
1284.0,0.0
1285.0,0.0
1286.0,0.0
1287.0,0.0
1288.0,0.0
1289.0,0.0
1290.0,0.0
1291.0,0.0
1292.0,0.0
1293.0,0.0
1294.0,0.0
1295.0,0.0
1296.0,0.0
1297.0,0.0
1298.0,0.0
1299.0,0.0
1300.0,0.0
1301.0,0.0
1302.0,0.0
1303.0,0.0
1304.0,0.0
1305.0,0.0
1306.0,0.0
1307.0,0.0
1308.0,0.0
1309.0,0.0
1310.0,0.0
1311.0,0.0
1312.0,0.0
1313.0,0.0
1314.0,0.0
1315.0,0.0
1316.0,0.0
1317.0,0.0
1318.0,0.0
1319.0,0.0
1320.0,0.0
1321.0,0.0
1322.0,0.0
1323.0,0.0
1324.0,0.0
1325.0,0.0
1326.0,0.0
1327.0,0.0
1328.0,0.0
1329.0,0.0
1330.0,0.0
1331.0,0.0
1332.0,0.0
1333.0,0.0
1334.0,0.0
1335.0,0.0
1336.0,0.0
1337.0,0.0
1338.0,0.0
1339.0,0.0
1340.0,0.0
1341.0,0.0
1342.0,0.0
1343.0,0.0
1344.0,0.0
1345.0,0.0
1346.0,0.0
1347.0,0.0
1348.0,0.0
1349.0,0.0
1350.0,0.0
1351.0,0.0
1352.0,0.0
1353.0,0.0
1354.0,0.0
1355.0,0.0
1356.0,0.0
1357.0,0.0
1358.0,0.0
1359.0,0.0
1360.0,0.0
1361.0,0.0
1362.0,0.0
1363.0,0.0
1364.0,0.0
1365.0,0.0
1366.0,0.0
1367.0,0.0
1368.0,0.0
1369.0,0.0
1370.0,0.0
1371.0,0.0
1372.0,0.0
1373.0,0.0
1374.0,0.0
1375.0,0.0
1376.0,0.0
1377.0,0.0
1378.0,0.0
1379.0,0.0
1380.0,0.0
1381.0,0.0
1382.0,0.0
1383.0,0.0
1384.0,0.0
1385.0,0.0
1386.0,0.0
1387.0,0.0
1388.0,0.0
1389.0,0.0
1390.0,0.0
1391.0,0.0
1392.0,0.0
1393.0,0.0
1394.0,0.0
1395.0,0.0
1396.0,0.0
1397.0,0.0
1398.0,0.0
1399.0,0.0
1400.0,0.0
1401.0,0.0
1402.0,0.0
1403.0,0.0
1404.0,0.0
1405.0,0.0
1406.0,0.0
1407.0,0.0
1408.0,0.0
1409.0,0.0
1410.0,0.0
1411.0,0.0
1412.0,0.0
1413.0,0.0
1414.0,0.0
1415.0,0.0
1416.0,0.0
1417.0,0.0
1418.0,0.0
1419.0,0.0
1420.0,0.0
1421.0,0.0
1422.0,0.0
1423.0,0.0
1424.0,0.0
1425.0,0.0
1426.0,0.0
1427.0,0.0
1428.0,0.0
1429.0,0.0
1430.0,0.0
1431.0,0.0
1432.0,0.0
1433.0,0.0
1434.0,0.0
1435.0,0.0
1436.0,0.0
1437.0,0.0
1438.0,0.0
1439.0,0.0
1440.0,0.0
1441.0,0.0
1442.0,0.0
1443.0,0.0
1444.0,0.0
1445.0,0.0
1446.0,0.0
1447.0,0.0
1448.0,0.0
1449.0,0.0
1450.0,0.0
1451.0,0.0
1452.0,0.0
1453.0,0.0
1454.0,0.0
1455.0,0.0
1456.0,0.0
1457.0,0.0
1458.0,0.0
1459.0,0.0
1460.0,0.0
1461.0,0.0
1462.0,0.0
1463.0,0.0
1464.0,0.0
1465.0,0.0
1466.0,0.0
1467.0,0.0
1468.0,0.0
1469.0,0.0
1470.0,0.0
1471.0,0.0
1472.0,0.0
1473.0,0.0
1474.0,0.0
1475.0,0.0
1476.0,0.0
1477.0,0.0
1478.0,0.0
1479.0,0.0
1480.0,0.0
1481.0,0.0
1482.0,0.0
1483.0,0.0
1484.0,0.0
1485.0,0.0
1486.0,0.0
1487.0,0.0
1488.0,0.0
1489.0,0.0
1490.0,0.0
1491.0,0.0
1492.0,0.0
1493.0,0.0
1494.0,0.0
1495.0,0.0
1496.0,0.0
1497.0,0.0
1498.0,0.0
1499.0,0.0
1500.0,0.0
1501.0,0.0
1502.0,0.0
1503.0,0.0
1504.0,0.0
1505.0,0.0
1506.0,0.0
1507.0,0.0
1508.0,0.0
1509.0,0.0
1510.0,0.0
1511.0,0.0
1512.0,0.0
1513.0,0.0
1514.0,0.0
1515.0,0.0
1516.0,0.0
1517.0,0.0
1518.0,0.0
1519.0,0.0
1520.0,0.0
1521.0,0.0
1522.0,0.0
1523.0,0.0
1524.0,0.0
1525.0,0.0
1526.0,0.0
1527.0,0.0
1528.0,0.0
1529.0,0.0
1530.0,0.0
1531.0,0.0
1532.0,0.0
1533.0,0.0
1534.0,0.0
1535.0,0.0
1536.0,0.0
1537.0,0.0
1538.0,0.0
1539.0,0.0
1540.0,0.0
1541.0,0.0
1542.0,0.0
1543.0,0.0
1544.0,0.0
1545.0,0.0
1546.0,0.0
1547.0,0.0
1548.0,0.0
1549.0,0.0
1550.0,0.0
1551.0,0.0
1552.0,0.0
1553.0,0.0
1554.0,0.0
1555.0,0.0
1556.0,0.0
1557.0,0.0
1558.0,0.0
1559.0,0.0
1560.0,0.0
1561.0,0.0
1562.0,0.0
1563.0,0.0
1564.0,0.0
1565.0,0.0
1566.0,0.0
1567.0,0.0
1568.0,0.0
1569.0,0.0
1570.0,0.0
1571.0,0.0
1572.0,0.0
1573.0,0.0
1574.0,0.0
1575.0,0.0
1576.0,0.0
1577.0,0.0
1578.0,0.0
1579.0,0.0
1580.0,0.0
1581.0,0.0
1582.0,0.0
1583.0,0.0
1584.0,0.0
1585.0,0.0
1586.0,0.0
1587.0,0.0
1588.0,0.0
1589.0,0.0
1590.0,0.0
1591.0,0.0
1592.0,0.0
1593.0,0.0
1594.0,0.0
1595.0,0.0
1596.0,0.0
1597.0,0.0
1598.0,0.0
1599.0,0.0
