0.0,0.0
1.0,0.0
2.0,0.0
3.0,0.0
4.0,0.0
5.0,0.0
6.0,0.0
7.0,0.0
8.0,0.0
9.0,0.0
10.0,0.0
11.0,0.0
12.0,0.0
13.0,0.0
14.0,0.0
15.0,0.0
16.0,0.0
17.0,0.0
18.0,0.0
19.0,0.0
20.0,0.0
21.0,0.0
22.0,0.0
23.0,0.0
24.0,0.0
25.0,0.0
26.0,0.0
27.0,0.0
28.0,0.0
29.0,0.0
30.0,0.0
31.0,0.0
32.0,0.0
33.0,0.0
34.0,0.0
35.0,0.0
36.0,0.0
37.0,0.0
38.0,0.0
39.0,0.0
40.0,0.0
41.0,0.0
42.0,0.0
43.0,0.0
44.0,0.0
45.0,0.0
46.0,0.0
47.0,0.0
48.0,0.0
49.0,0.0
50.0,0.0
51.0,0.0
52.0,0.0
53.0,0.0
54.0,0.0
55.0,0.0
56.0,0.0
57.0,0.0
58.0,0.0
59.0,0.0
60.0,0.0
61.0,0.0
62.0,0.0
63.0,0.0
64.0,0.0
65.0,0.0
66.0,0.0
67.0,0.0
68.0,0.0
69.0,0.0
70.0,0.0
71.0,0.0
72.0,0.0
73.0,0.0
74.0,0.0
75.0,0.0
76.0,0.0
77.0,0.0
78.0,0.0
79.0,0.0
80.0,0.0
81.0,0.0
82.0,0.0
83.0,0.0
84.0,0.0
85.0,0.0
86.0,0.0
87.0,0.0
88.0,0.0
89.0,0.0
90.0,0.0
91.0,0.0
92.0,0.0
93.0,0.0
94.0,0.0
95.0,0.0
96.0,0.0
97.0,0.0
98.0,0.0
99.0,0.0
100.0,0.0
101.0,0.0
102.0,0.0
103.0,0.0
104.0,0.0
105.0,0.0
106.0,0.0
107.0,0.0
108.0,0.0
109.0,0.0
110.0,0.0
111.0,0.0
112.0,0.0
113.0,0.0
114.0,-0.9563115450004798
115.0,0.005323474769162855
116.0,0.8493015984309014
117.0,0.5260068847606517
118.0,2.002831065050232
119.0,2.73850384892118
120.0,2.6633591771911913
121.0,2.4728658992195998
122.0,2.6089695360416774
123.0,4.977606732693293
124.0,5.3027475035233955
125.0,3.3188094749434844
126.0,2.6697083735302933
127.0,2.5976695865547064
128.0,2.734521028882423
129.0,2.9607940051600226
130.0,3.3616343081672033
131.0,2.5034547407291643
132.0,2.099768928186352
133.0,2.853969719985305
134.0,4.02283043974777
135.0,3.7435575855107266
136.0,3.480533636140801
137.0,4.331031883396919
138.0,6.019054477746618
139.0,4.940391931314975
140.0,4.614891308900558
141.0,4.390244776692061
142.0,3.875023322964455
143.0,3.991941896103762
144.0,3.7234874590012312
145.0,3.1681173525319912
146.0,2.4867321866882555
147.0,1.7712491338805176
148.0,0.26445639047628045
149.0,0.2261800058581294
150.0,0.2795254723991883
151.0,1.131889375153116
152.0,0.23482103834084975
153.0,0.8640186734222337
154.0,1.3719688758184614
155.0,1.0737806341691372
156.0,0.524927841360287
157.0,0.4513038440765363
158.0,0.3329586400754969
159.0,0.3664878731788487
160.0,1.1863226336243717
161.0,1.18751977230118
162.0,1.504107818512243
163.0,2.017038958090877
164.0,2.446045311199875
165.0,2.476682496472677
166.0,1.961381353829322
167.0,1.7749974489854392
168.0,2.269745964422808
169.0,2.9095885347631834
170.0,1.8761550959187063
171.0,1.9619258919110663
172.0,2.7501565165259363
173.0,2.011056968592548
174.0,1.6970458459586513
175.0,1.9156942900274174
176.0,2.246229938053952
177.0,2.290427027245509
178.0,1.6869153053006025
179.0,1.8952617637905125
180.0,2.3074131407319904
181.0,2.2810608476393734
182.0,1.7298319875339736
183.0,1.7991769338833903
184.0,1.9995583274505704
185.0,2.0117097411164884
186.0,1.9056032767158877
187.0,2.2561985698935705
188.0,1.8272811241776294
189.0,1.4520614712062598
190.0,1.7684885021321157
191.0,0.8540809813903422
192.0,0.34757440371321596
193.0,0.36234017019807585
194.0,0.6814286244944837
195.0,0.9715843788694685
196.0,1.3961650760315114
197.0,1.4225844245230475
198.0,1.153231986563387
199.0,1.056942477728431
200.0,0.9287430778915952
201.0,0.6901381686112202
202.0,0.25014038010230955
203.0,0.24936416088582725
204.0,0.41726397213982536
205.0,0.28535567038840354
206.0,0.22321243540086824
207.0,0.3880944891149006
208.0,0.26303714055860444
209.0,0.14030235079654604
210.0,0.14990734459261057
211.0,0.10175287313213442
212.0,0.31199999884612195
213.0,0.9232817291548157
214.0,0.5512271445929814
215.0,0.06345747664018467
216.0,0.45200038096523637
217.0,0.8112708272211425
218.0,1.0445940388327875
219.0,0.8761025346904011
220.0,0.9238994935730771
221.0,1.478387038496843
222.0,1.4168621797618126
223.0,1.6043533383301436
224.0,2.2314699903847584
225.0,2.9884114894287905
226.0,3.378499286069624
227.0,2.313068431590965
228.0,2.3643724749692243
229.0,3.244205878115883
230.0,3.8893063370660097
231.0,2.6356795235385593
232.0,4.003520676488668
233.0,4.790109911261002
234.0,4.38731192381478
235.0,4.340676716502674
236.0,4.222656337500985
237.0,3.7812024295567537
238.0,3.89501656466907
239.0,5.149250690308149
240.0,5.054907138602877
241.0,5.406097134482233
242.0,5.82565916157849
243.0,5.763281049947932
244.0,5.146067705269803
245.0,4.907046022082881
246.0,5.41996662024578
247.0,5.831525941931893
248.0,5.658475657127518
249.0,5.502086729119914
250.0,5.619607831007359
251.0,6.076607038764805
252.0,6.208278087445478
253.0,5.511968382234728
254.0,5.004046235562744
255.0,4.547455453169067
256.0,3.8392328081928846
257.0,2.970167880530065
258.0,2.4248369410073636
259.0,2.0116008680475184
260.0,2.2809683638458123
261.0,2.3172077157929563
262.0,1.4043642265585796
263.0,0.7870162045960771
264.0,1.5733078903411186
265.0,1.7389743426469755
266.0,1.3719218516494354
267.0,2.2151348320326614
268.0,1.1684726778977266
269.0,0.9291892426239674
270.0,1.5367143282552123
271.0,2.099396300673328
272.0,2.1988571053423045
273.0,1.5663509801746929
274.0,1.434087249984766
275.0,1.1889036532891526
276.0,0.14672997062473161
277.0,0.8978921970459229
278.0,1.5581628709357271
279.0,1.4937289327714773
280.0,1.1816012285813184
281.0,1.861992470460323
282.0,2.1264731117771603
283.0,2.621844141639516
284.0,3.0137335706202446
285.0,3.0721643141176482
286.0,3.3936687724059937
287.0,3.612470458791581
288.0,4.240584393208368
289.0,5.048302946664223
290.0,5.664243678357467
291.0,6.058101862524038
292.0,6.8833259062650605
293.0,7.313011980551252
294.0,7.7923154715920315
295.0,8.867990071495663
296.0,8.659199829510372
297.0,7.593187295746936
298.0,7.229734813823857
299.0,7.26952910447536
300.0,5.817339720850661
301.0,5.8234814229555125
302.0,5.202979242736112
303.0,4.625925350722965
304.0,4.823847093475391
305.0,4.573650772368529
306.0,5.196660784883855
307.0,5.6727651869361235
308.0,5.599509723348811
309.0,5.395621313129042
310.0,6.396785154849925
311.0,6.418243359059289
312.0,6.871117947751032
313.0,7.698401532610938
314.0,7.660004620908535
315.0,8.48947753221047
316.0,8.90715206537991
317.0,9.765341575649838
318.0,11.259166032966181
319.0,12.750711986641376
320.0,15.035057559399586
321.0,16.55054932031981
322.0,18.05418512855885
323.0,20.028109772890947
324.0,22.140592741289087
325.0,23.82030395943197
326.0,23.328047459951044
327.0,21.022974711061032
328.0,17.649900537173213
329.0,13.773491084780366
330.0,10.246845516259565
331.0,8.13360741236201
332.0,6.5992589821102925
333.0,4.453208448125235
334.0,2.4535988757981952
335.0,1.3675083978867628
336.0,1.1586965493936008
337.0,0.9353484481747943
338.0,0.0042188771016535235
339.0,0.28384241815861155
340.0,0.2724979444160059
341.0,0.20537427995224639
342.0,0.028853418177958674
343.0,0.3862311791364733
344.0,0.3264821429453216
345.0,0.7077784500724525
346.0,0.7353195712937958
347.0,0.03557110664151841
348.0,0.2563848494090106
349.0,0.4132976807695907
350.0,0.09048381724616579
351.0,0.3011926421989591
352.0,0.04092432789108948
353.0,0.17449243425773697
354.0,0.09120907830008879
355.0,0.16007358764796223
356.0,0.21419847571039463
357.0,0.8465386914895189
358.0,0.08731900567219954
359.0,0.2937997075193443
360.0,0.07115334421666196
361.0,0.15180412070593902
362.0,0.9112590382340778
363.0,1.2469480008069662
364.0,0.9422208526887165
365.0,0.639296915548634
366.0,0.5091110674052428
367.0,0.4764002471490546
368.0,0.4653018765298435
369.0,1.1697994967393404
370.0,1.4075207415933682
371.0,1.770336529902514
372.0,2.3496154909429983
373.0,2.2480429403287414
374.0,1.8517951337897585
375.0,2.1342390929745956
376.0,2.9513660487717472
377.0,3.9841653443103593
378.0,5.159106185353905
379.0,6.356924382684457
380.0,7.193998524687859
381.0,8.038780953857694
382.0,9.088845969222263
383.0,10.181349515501267
384.0,11.425826997135893
385.0,13.458142737716699
386.0,15.451189811257192
387.0,17.656124013125744
388.0,20.593088413725173
389.0,22.15234323669249
390.0,24.398399530907408
391.0,27.91556374864606
392.0,32.47215935392284
393.0,37.60393687812802
394.0,43.18496977120662
395.0,48.31932383115278
396.0,55.944403104578704
397.0,65.55736664383127
398.0,74.57550112699829
399.0,82.51657355597332
400.0,86.49584291657612
401.0,86.32861404210654
402.0,82.68420443082744
403.0,75.50966172821074
404.0,62.869712593035594
405.0,51.555046364795594
406.0,42.62067309048036
407.0,35.06680904575591
408.0,28.163258781110958
409.0,22.616221278598548
410.0,19.109578099869925
411.0,16.934233859828797
412.0,14.93974655589691
413.0,13.001600767507218
414.0,12.43628176347415
415.0,11.345454626703749
416.0,10.926535483680844
417.0,11.107163757819091
418.0,11.333717994156679
419.0,11.263194101819508
420.0,11.56594398378539
421.0,11.247855393780474
422.0,11.003633883448208
423.0,10.972621342818146
424.0,10.49488326607477
425.0,9.7822153203366
426.0,8.644213284015965
427.0,8.025487009423074
428.0,7.401787716242823
429.0,6.310052619394426
430.0,5.801555586700693
431.0,4.90548314467447
432.0,4.138523760716444
433.0,3.6018971696117523
434.0,3.358122898979351
435.0,3.7870921548406518
436.0,4.1475818727501395
437.0,4.235777368756995
438.0,4.45309147527963
439.0,4.8312946479724665
440.0,4.669849094555641
441.0,4.916948533758639
442.0,4.876775559691046
443.0,4.809839708210778
444.0,5.102740523068445
445.0,5.756890430622831
446.0,5.874420463913367
447.0,5.84995161621956
448.0,5.27609484363845
449.0,4.612043017772006
450.0,4.337591659668936
451.0,3.780212211119332
452.0,2.8123378204140086
453.0,1.7811302271910785
454.0,1.838581192674175
455.0,2.757686939342922
456.0,1.6998580137915138
457.0,1.195596011980642
458.0,1.0489296611988734
459.0,0.7042991340870774
460.0,0.4282373900434453
461.0,0.8145984106236622
462.0,0.7350961357715803
463.0,0.7884581914032268
464.0,0.6622978201737307
465.0,0.27420251616707997
466.0,0.04651782349828925
467.0,0.05146439506339237
468.0,0.28260774819022855
469.0,0.3998994012701615
470.0,0.12172126489485618
471.0,0.21259616085612165
472.0,0.12407113131904265
473.0,0.39988550216324176
474.0,0.2115663289376963
475.0,0.06270729245711022
476.0,0.14698491083281562
477.0,0.09292651140128319
478.0,0.029460217275927243
479.0,0.5333987625109141
480.0,0.22691852104992827
481.0,0.21908139703659057
482.0,0.20513983774106354
483.0,-0.0032552065169902927
484.0,0.2875535517542336
485.0,0.06688078666158068
486.0,0.11768397106424563
487.0,0.028170540336598104
488.0,0.0641639010435528
489.0,0.18225737403241213
490.0,0.2968307960833873
491.0,0.4253518715789554
492.0,0.5005376862820791
493.0,0.48998432568496186
494.0,0.4363307441476845
495.0,0.4148736777700732
496.0,0.6380635229618055
497.0,0.25211145958921816
498.0,0.09608204895927118
499.0,0.09648851232083565
500.0,0.30533524213438906
501.0,0.2773981790655921
502.0,0.3916509083827129
503.0,0.6713354457948433
504.0,0.8140444194660021
505.0,0.47556360683078475
506.0,0.2840770328330769
507.0,0.35906428334251844
508.0,0.44389377229112836
509.0,0.7059789033797933
510.0,1.2069589553869589
511.0,1.4657840549686807
512.0,1.0646748132680248
513.0,1.100228828357258
514.0,1.0951680184358905
515.0,1.346434778293864
516.0,2.1494808769486635
517.0,2.346508373641385
518.0,2.2045121395410803
519.0,2.8165942017850116
520.0,3.409917663981285
521.0,3.437447892320613
522.0,3.2188512959353663
523.0,3.3866260258321845
524.0,3.059713198981601
525.0,3.200933909367413
526.0,3.683435715566581
527.0,3.9999308084358867
528.0,4.227878038063963
529.0,4.1585043304643445
530.0,4.034478352601562
531.0,4.074957973376081
532.0,4.053124360290746
533.0,3.8127568923097095
534.0,4.0486379786715325
535.0,3.471969842090165
536.0,3.8606805859747957
537.0,4.235623735736089
538.0,3.8818783605049427
539.0,3.3345134351123344
540.0,3.476158497441154
541.0,2.9602459417280964
542.0,3.0416602814715263
543.0,2.8008814591859585
544.0,2.3557177482671054
545.0,2.9325055258628754
546.0,2.780824018798893
547.0,1.7601778058069117
548.0,1.5204697263651867
549.0,1.5796755277970878
550.0,1.4967759693041383
551.0,2.0238388835195558
552.0,1.9623883193893177
553.0,2.2459222458976447
554.0,2.537494056549795
555.0,2.5948477776801417
556.0,2.5248735434183254
557.0,2.301991252629015
558.0,2.0668101959537206
559.0,2.6046523120500855
560.0,3.041554959522796
561.0,2.8932404720630234
562.0,2.51472230419312
563.0,2.767204109178139
564.0,2.7414835540271607
565.0,2.999539470035859
566.0,3.493113749041175
567.0,3.3937000265904658
568.0,2.729939623607387
569.0,3.2534492772725687
570.0,3.3559439334493866
571.0,3.32438091997148
572.0,3.607948131441279
573.0,4.224642256174983
574.0,4.739943038327785
575.0,4.684419177928057
576.0,5.132375260966458
577.0,4.6839032976112085
578.0,4.118026192123727
579.0,4.096313174547048
580.0,4.313648348580856
581.0,3.709774385693459
582.0,3.7028613013286993
583.0,3.2298798824228903
584.0,2.84500024374546
585.0,2.5900672192951033
586.0,2.407962516017613
587.0,2.6209105896061775
588.0,1.9129022514324576
589.0,1.7720360522940506
590.0,1.7658606009747728
591.0,1.8468080291520348
592.0,1.8652839282119162
593.0,1.0982603616071245
594.0,1.1633362220430445
595.0,0.641064403832303
596.0,0.7014340286718029
597.0,0.5161292945916494
598.0,0.03898270711393536
599.0,0.2892481917165052
600.0,0.038711696739505044
601.0,0.007114096978758723
602.0,0.4332823374774977
603.0,0.49585968572479305
604.0,0.10285762134475518
605.0,0.14573012200020066
606.0,0.03890383107402312
607.0,0.09920012721891525
608.0,0.4054594129865177
609.0,0.32437952255228614
610.0,0.25256109391032777
611.0,0.6178907475539278
612.0,0.5705236237961767
613.0,0.055715984786384655
614.0,0.02198774053457103
615.0,0.41996015474389814
616.0,0.7810750321034581
617.0,0.8767828275073182
618.0,0.46117576597797444
619.0,0.9475704165394766
620.0,0.850075119065344
621.0,0.8080203009259395
622.0,1.255064211685266
623.0,1.5740402510398415
624.0,1.0107987587248117
625.0,0.6197734915695129
626.0,0.3007637825613289
627.0,0.3345901739847844
628.0,0.31237482913709935
629.0,0.17607684077132119
630.0,0.3554469930076278
631.0,0.061135059654704914
632.0,0.2807968667023704
633.0,0.09261695027149867
634.0,0.11411792921927205
635.0,0.1176886330436969
636.0,0.6189792597760099
637.0,0.4894813351853451
638.0,0.5066748695625992
639.0,0.06928173092467009
640.0,0.18234248159836408
641.0,0.5654548603004059
642.0,0.5051572688347511
643.0,0.6602123032435605
644.0,0.8015698477904849
645.0,0.8573717250004153
646.0,0.73889885918093
647.0,0.7503189410913292
648.0,1.053138878825044
649.0,1.1763955556840362
650.0,0.22370724849073634
651.0,0.9376059565740125
652.0,1.0277572335950627
653.0,0.9797459354671536
654.0,1.2050872127599002
655.0,1.692129145616399
656.0,2.093861107415017
657.0,2.0327628349198856
658.0,1.9651707097340962
659.0,2.1232189310792577
660.0,2.7256850141936155
661.0,3.2771094166336843
662.0,3.5075196609204475
663.0,4.07571571152317
664.0,4.834877883742392
665.0,5.791222012260229
666.0,6.772709851357673
667.0,7.732408652198517
668.0,9.044201967753756
669.0,10.957778242683757
670.0,12.951389568613232
671.0,15.838488867468683
672.0,18.592512174470382
673.0,22.14817724193086
674.0,26.240972263368104
675.0,30.240040571592495
676.0,34.21705613846646
677.0,39.58835176684784
678.0,45.453230579745416
679.0,53.12321553433407
680.0,63.98565928408103
681.0,76.21490956753324
682.0,89.38074131721237
683.0,106.88247395728467
684.0,126.95868426839972
685.0,149.4148724542044
686.0,169.1859053343226
687.0,179.6331674017371
688.0,177.54819270998982
689.0,163.4418292191736
690.0,141.00318152702997
691.0,116.64124258972957
692.0,93.42367149308517
693.0,74.2739198007676
694.0,59.39902033947475
695.0,47.84586318914641
696.0,39.12121751486926
697.0,32.40890659084226
698.0,27.445165299663252
699.0,23.621070327974323
700.0,20.60754511101806
701.0,17.989996294099047
702.0,15.41310839307038
703.0,13.197269251290708
704.0,12.198854765118785
705.0,10.594967167282942
706.0,10.015554202964795
707.0,9.007937110836162
708.0,7.790154679656301
709.0,6.983733086569585
710.0,5.580491610741546
711.0,5.287939324312774
712.0,4.83380450518818
713.0,4.4316823139331305
714.0,4.070464892150404
715.0,3.8171761247743006
716.0,3.3363265543441214
717.0,2.2934428687421544
718.0,2.8746880434282605
719.0,2.38913061240693
720.0,2.431214978516694
721.0,2.7147667029103073
722.0,2.4389708916428106
723.0,1.634279773129642
724.0,1.287481160243573
725.0,1.3797346307409257
726.0,1.663440960133882
727.0,1.4144437734250852
728.0,1.0904565688449859
729.0,0.8855496223722013
730.0,1.038057963616838
731.0,1.6269602565611356
732.0,1.4270166098318964
733.0,1.0239614008092743
734.0,0.6670684603781127
735.0,0.46572350897071574
736.0,0.6943800165904801
737.0,0.6248244407688633
738.0,0.12064562670293398
739.0,0.0672232109318115
740.0,1.010157499809756
741.0,0.2811134721147173
742.0,0.2118263380902633
743.0,0.5196913178729631
744.0,0.25116836191891384
745.0,0.101232978851822
746.0,0.31134740261792343
747.0,0.12570268297633536
748.0,0.6271356859730843
749.0,0.3373894922725239
750.0,0.1359583584102665
751.0,0.5029169865908918
752.0,0.5840260601314335
753.0,0.1743860809229538
754.0,0.04760413033470895
755.0,0.2279933258779178
756.0,0.3637152749206617
757.0,0.5069325374941894
758.0,0.7553061565669954
759.0,1.0257773040966847
760.0,1.208388368484443
761.0,1.2392421941612124
762.0,1.5925357270403095
763.0,1.8993199775734364
764.0,1.4770429853048457
765.0,1.412996314211358
766.0,1.773042754229985
767.0,1.873419215520229
768.0,1.9325884083762381
769.0,1.9528130086851805
770.0,1.8562833732104222
771.0,1.369998874457073
772.0,1.1259328676240028
773.0,0.9823897451371244
774.0,0.7063421142483546
775.0,0.4787329199032686
776.0,0.31762987046655355
777.0,1.121770450110765
778.0,1.057854936793967
779.0,1.1245915279480438
780.0,1.3471656543949193
781.0,1.075400056239357
782.0,0.307238397321667
783.0,0.32226191458331466
784.0,0.7321729452360264
785.0,0.9821819174212263
786.0,0.6450172875055018
787.0,0.10178529705531739
788.0,0.24917600784299596
789.0,0.050670373407834965
790.0,0.19045268593413955
791.0,0.25663789155152233
792.0,0.8167048028857689
793.0,0.9363098744155739
794.0,0.6805510244594245
795.0,0.3087164331808028
796.0,0.03655414263302985
797.0,0.05917555767266239
798.0,0.35404406973612235
799.0,0.29104727779907197
800.0,0.05463039707330016
801.0,0.3675390396164147
802.0,0.1731418600444139
803.0,0.30672080866394774
804.0,0.38127493579503635
805.0,0.23090742385098667
806.0,0.3887100637269864
807.0,0.1577300495773399
808.0,0.11177901825985619
809.0,0.6031153369848486
810.0,0.19559471707372303
811.0,0.1359011029189432
812.0,0.549133516314402
813.0,0.5779484962853596
814.0,0.056304442241198564
815.0,0.10833800813446035
816.0,0.008316032688895211
817.0,0.423510288272168
818.0,0.3066893071127988
819.0,0.0656429320447919
820.0,0.05928606899772466
821.0,0.1114134618149166
822.0,0.7935180903720519
823.0,0.7296359286086048
824.0,0.04374522873707182
825.0,0.5475053158132652
826.0,0.42222010210931166
827.0,0.5303611985135237
828.0,0.6391285546157139
829.0,0.3147524136273639
830.0,0.24287794985270034
831.0,0.20934009186222524
832.0,0.05434907387292726
833.0,0.8513389464310309
834.0,0.7843352558241725
835.0,0.14753883398920972
836.0,0.17521517390733912
837.0,0.40181012309636177
838.0,0.263630897118675
839.0,0.9360018683202224
840.0,0.9335180386834113
841.0,0.8098710076699674
842.0,0.5454642915701945
843.0,1.1012832641826855
844.0,1.2396754241263974
845.0,0.8177297387003282
846.0,1.0201535245855096
847.0,1.1289743049611491
848.0,1.115573959881932
849.0,0.949822924922848
850.0,1.011881669691668
851.0,1.2550902647055902
852.0,1.0903160459039134
853.0,0.6742934410807857
854.0,0.585356910628963
855.0,1.0312202101862669
856.0,1.6031515517454302
857.0,1.8631364266352617
858.0,0.9919932980263402
859.0,0.9155566948241962
860.0,1.0023905973298841
861.0,1.2953140694958034
862.0,1.536920092746687
863.0,1.262513291205105
864.0,1.0498570217516858
865.0,0.9413300967003321
866.0,0.8749806725769008
867.0,1.0611472272792974
868.0,0.763991362679354
869.0,0.6691087862864037
870.0,0.7839853443655168
871.0,0.8174810270642545
872.0,0.9596165317135776
873.0,0.6004225685738
874.0,0.6019866418160801
875.0,0.6995296542230149
876.0,0.6423300658352507
877.0,0.6741811401346607
878.0,0.8707870365557812
879.0,0.7115545556967786
880.0,0.5613093802309921
881.0,1.3242603787688978
882.0,1.5970233412911892
883.0,0.9433881154410196
884.0,0.9915053768186299
885.0,0.2972657047758277
886.0,0.6211625454606717
887.0,0.9045889126738049
888.0,1.1186297655830486
889.0,1.7195031376826142
890.0,0.8394288838019611
891.0,0.19189868107328978
892.0,1.0790912663473524
893.0,0.9079620022565905
894.0,0.6056865767291476
895.0,0.9764664395860527
896.0,1.1213327992203053
897.0,0.8228747102962779
898.0,0.6994329075879783
899.0,1.0447920623453641
900.0,1.361870231432917
901.0,1.3577273659289306
902.0,1.4968926585049989
903.0,1.4839551198575334
904.0,1.5276803323760508
905.0,1.662530353195623
906.0,1.5949711824020851
907.0,1.519888103882165
908.0,1.9474286693112381
909.0,2.37183698474978
910.0,1.6964210936189512
911.0,2.7002842099854605
912.0,2.159195926617745
913.0,2.153029677303866
914.0,2.300612053970562
915.0,2.048490393814956
916.0,1.7517703676022154
917.0,1.8262244791467654
918.0,2.3026308763088337
919.0,1.7983994914633536
920.0,2.159379225188655
921.0,2.2508988088233686
922.0,2.09502763524048
923.0,1.8459785741277634
924.0,1.4583920159177368
925.0,1.4307503578077503
926.0,1.600009959202149
927.0,1.2952191983290415
928.0,1.1889501818006742
929.0,1.223349166747652
930.0,1.0202591198304332
931.0,1.199140411780844
932.0,1.149578125029158
933.0,1.0479998151681593
934.0,1.155877909364333
935.0,1.2510831113386442
936.0,1.1462987619975957
937.0,0.9130726960967737
938.0,0.32253230029463215
939.0,0.10835781808586518
940.0,0.8635970475941123
941.0,0.6312517176312599
942.0,0.5905211659845082
943.0,0.7248898592777442
944.0,0.8475414698967607
945.0,0.7015502961894159
946.0,0.2415671790736253
947.0,0.21604079982866956
948.0,0.35418611901132696
949.0,0.33922003588635147
950.0,0.7891569346791071
951.0,0.2709656812326527
952.0,0.11128377933025303
953.0,0.43104668146067654
954.0,0.6646799834634469
955.0,0.20534944056454188
956.0,0.22562918338442953
957.0,0.20067314194763933
958.0,0.3736716277076322
959.0,0.040083861503766235
960.0,0.26751477351254677
961.0,0.13534596065152132
962.0,0.42028815368182326
963.0,0.04021969859606998
964.0,0.007220541382852247
965.0,0.48612182822113187
966.0,0.40192015449439455
967.0,0.6482960633132498
968.0,0.015416463132178683
969.0,0.04052249209496749
970.0,0.1457619992436133
971.0,0.20345287978055931
972.0,0.3943580152155055
973.0,0.23735857476672725
974.0,-0.0015612004963854675
975.0,0.03782324893758329
976.0,0.19475364236936912
977.0,0.3283154749522915
978.0,0.47477269817998713
979.0,0.17844854974461874
980.0,0.002490376199984063
981.0,0.12223834885913204
982.0,0.5661393529991166
983.0,1.0414442731940052
984.0,0.7487177300936234
985.0,0.24755255016164238
986.0,0.2546498929057722
987.0,0.7007972814309287
988.0,1.0802793473242855
989.0,1.462830460525347
990.0,2.120641495118495
991.0,2.7240318390186546
992.0,2.441000373287956
993.0,2.670834016471386
994.0,3.5142676643331576
995.0,4.145299229825429
996.0,5.404319197113918
997.0,6.705799395193464
998.0,6.826626775625563
999.0,7.485207349105374
1000.0,8.415098623772872
1001.0,8.27605889365603
1002.0,9.611319480067094
1003.0,9.990668751594235
1004.0,11.109137656633315
1005.0,11.390505917329486
1006.0,11.802073121119617
1007.0,12.78133879180146
1008.0,13.729990099519664
1009.0,14.314269020388291
1010.0,14.515739113838547
1011.0,14.858195349638361
1012.0,14.314052210472331
1013.0,13.820885338485114
1014.0,13.195693591904671
1015.0,12.344626580624793
1016.0,11.118573654791271
1017.0,10.763296038213367
1018.0,9.805144385164045
1019.0,8.515665311727394
1020.0,8.081216695615575
1021.0,7.22822096589555
1022.0,6.16188938382665
1023.0,4.572897297820472
1024.0,3.83637442689465
1025.0,3.9302990062390704
1026.0,3.392332271071024
1027.0,2.733102054097547
1028.0,2.4065605589652943
1029.0,2.21906021836709
1030.0,1.8164427779278398
1031.0,1.3244720247221904
1032.0,1.3210988029159594
1033.0,1.5929760644506779
1034.0,0.3107476119118989
1035.0,0.8602346618577739
1036.0,0.8806115360116982
1037.0,0.9267443400788171
1038.0,0.556585933481892
1039.0,1.047074110778704
1040.0,1.350481736620672
1041.0,0.9700978815525587
1042.0,0.8546347540595569
1043.0,1.6283881867620489
1044.0,2.2176475294372877
1045.0,2.017933
1046.0,2.6993115499303975
1047.0,3.4607710259109408
1048.0,3.698839367801413
1049.0,4.911879639164921
1050.0,5.648601624756168
1051.0,5.886729312324925
1052.0,6.689862265875856
1053.0,8.02388639413832
1054.0,9.225867482761412
1055.0,11.005280046401964
1056.0,13.340581660533918
1057.0,15.377472975632
1058.0,17.726681018544262
1059.0,18.741451615546346
1060.0,21.507046539520758
1061.0,24.714394926411604
1062.0,27.791879153592042
1063.0,29.660536549784858
1064.0,31.429659065225394
1065.0,33.30268314676966
1066.0,33.76667505050637
1067.0,34.794063908937034
1068.0,35.87059008314795
1069.0,35.19839363892088
1070.0,34.80414169165096
1071.0,34.69582924394798
1072.0,33.67251401686206
1073.0,32.62807013514402
1074.0,31.820499164106185
1075.0,29.98810780913088
1076.0,27.413322181049224
1077.0,24.86089607395955
1078.0,23.90204274634755
1079.0,22.035124028058544
1080.0,19.527397599120633
1081.0,17.48666056257104
1082.0,15.75547448245733
1083.0,14.384653295495959
1084.0,12.81221256393411
1085.0,10.673665674853453
1086.0,9.971594895265078
1087.0,7.8804290169251106
1088.0,7.618300244637916
1089.0,6.701892469980398
1090.0,6.370852801142858
1091.0,5.759092179755952
1092.0,5.416059115827144
1093.0,4.8618532519117625
1094.0,4.0798554595202985
1095.0,3.4116064723717563
1096.0,3.2041125684118605
1097.0,3.1742725772988476
1098.0,2.1196808580298163
1099.0,2.1193087045548293
1100.0,1.5543068883241529
1101.0,1.6265866935850681
1102.0,1.7085342423195549
1103.0,1.2426773389030739
1104.0,1.5033478639319702
1105.0,1.558430896802454
1106.0,1.1782061031099935
1107.0,0.8463697752754573
1108.0,0.7290492113798216
1109.0,0.5782605494185894
1110.0,1.2366388431093047
1111.0,1.8482518818569162
1112.0,1.1625181026959353
1113.0,0.8220270050792724
1114.0,1.2358720495744364
1115.0,1.0756690389259211
1116.0,0.5274527469353337
1117.0,0.47626283870363373
1118.0,0.20679278714850013
1119.0,0.9516156532368394
1120.0,1.0332828377579157
1121.0,0.8879035376453961
1122.0,0.7126023432234179
1123.0,1.0632700428394437
1124.0,1.543086150092618
1125.0,1.1792076006482957
1126.0,1.0457743220396687
1127.0,1.381841424890273
1128.0,1.2095475334616987
1129.0,1.0917351804145499
1130.0,1.1942823254288746
1131.0,1.3815311577540599
1132.0,0.8898974729458595
1133.0,1.2393112941268745
1134.0,1.8916416862999144
1135.0,1.7851178536458037
1136.0,1.825456572228087
1137.0,2.5160365808279117
1138.0,2.633900191865543
1139.0,2.40763817648898
1140.0,2.3951358179050564
1141.0,2.0822223385483536
1142.0,2.427920078074567
1143.0,2.933811691264926
1144.0,2.5018946553781696
1145.0,2.4485684669117336
1146.0,2.7730662067245735
1147.0,1.917269950531409
1148.0,2.226554372159851
1149.0,2.061982255680574
1150.0,2.2588976638906297
1151.0,2.347461965005278
1152.0,2.4169655505895746
1153.0,2.1116150065210846
1154.0,1.3828801476506347
1155.0,1.1067391302130192
1156.0,0.9536400916313253
1157.0,0.3339699500596151
1158.0,0.0362877685029926
1159.0,0.15315509009732223
1160.0,0.09990397372216644
1161.0,0.07950131500626194
1162.0,0.29393095351794607
1163.0,0.14467679587717616
1164.0,0.32086995280462943
1165.0,0.21704890070493682
1166.0,0.35181186463316855
1167.0,0.31874266022645187
1168.0,0.09607890934809249
1169.0,0.50212605506717
1170.0,0.0990005368119232
1171.0,0.574870089119691
1172.0,0.08032253418752022
1173.0,0.21355568715996834
1174.0,0.3039691229465327
1175.0,0.08461474424053482
1176.0,0.23449992617586055
1177.0,0.29100885794514847
1178.0,0.31257916646880274
1179.0,0.008531311218576386
1180.0,0.32208353966680564
1181.0,0.0688709938346238
1182.0,0.4413397021958697
1183.0,-0.023472032316514173
1184.0,0.7706769129359863
1185.0,0.5058898747020325
1186.0,0.43872294287120983
1187.0,0.8324316415895411
1188.0,0.9231580371898075
1189.0,0.8150160239019925
1190.0,0.8390334151860589
1191.0,1.1897685990867577
1192.0,1.2357801507264372
1193.0,0.8397773528358664
1194.0,1.1813963339136961
1195.0,1.3867436712701922
1196.0,1.4114968274723034
1197.0,1.059307523980286
1198.0,0.9821884335410048
1199.0,1.294425991735776
1200.0,1.1383748530703222
1201.0,1.1307138443033844
1202.0,1.1965325710031927
1203.0,0.9686764333467865
1204.0,0.271549832514946
1205.0,0.7120404589660656
1206.0,1.3403752101710573
1207.0,1.3358795194778221
1208.0,1.59989824596162
1209.0,1.6492443697997614
1210.0,1.4560095854624746
1211.0,1.4619113625115432
1212.0,1.3081821457640774
1213.0,1.1771044429850606
1214.0,1.3304394046217196
1215.0,1.26729453122912
1216.0,2.152264021890947
1217.0,2.3125380986898065
1218.0,1.4506312545642652
1219.0,1.7936152390471731
1220.0,2.0864734454977
1221.0,1.965385878068759
1222.0,1.6831862084804796
1223.0,1.8370683771831162
1224.0,3.2673489152142516
1225.0,2.362927208753235
1226.0,2.185804477965853
1227.0,2.3148327580737202
1228.0,2.2291098973946983
1229.0,1.8151637516749959
1230.0,2.190538353452922
1231.0,2.494423693533323
1232.0,2.6505121344687383
1233.0,2.0237481759828873
1234.0,1.1405537850228824
1235.0,2.101771233018887
1236.0,1.4214603682441456
1237.0,1.5029596629005235
1238.0,1.4321736899447604
1239.0,1.2714019695510381
1240.0,1.3296241803099877
1241.0,0.8934875415963649
1242.0,1.0941524813156798
1243.0,1.1048196834278565
1244.0,0.3758006270385595
1245.0,0.3224586723845612
1246.0,1.0334072013659672
1247.0,0.8440948545536541
1248.0,0.5581815780902752
1249.0,0.46271410319171996
1250.0,0.5053876355909915
1251.0,0.6338508131020857
1252.0,0.4730085606902372
1253.0,0.5880250402230601
1254.0,0.626941294189834
1255.0,0.22994704689811854
1256.0,0.15195074140189166
1257.0,0.31297989678117627
1258.0,0.4831000808512457
1259.0,0.4359732846217433
1260.0,0.4708580122813951
1261.0,0.5782297436744986
1262.0,0.5488471270596091
1263.0,0.28980126273736745
1264.0,0.30386897866372026
1265.0,0.12252304053359574
1266.0,0.7083111526543209
1267.0,0.7715696867749344
1268.0,0.4148691902606572
1269.0,0.7339833143397585
1270.0,1.157503638632345
1271.0,0.6465503098444249
1272.0,0.5494536675858183
1273.0,0.03485078856830285
1274.0,0.009545403861758311
1275.0,0.5041842627476497
1276.0,0.5215494373570677
1277.0,0.4035497477307535
1278.0,0.45684854821949455
1279.0,1.0948308276824092
1280.0,1.2235394347080697
1281.0,0.558968720405724
1282.0,0.49547765523378495
1283.0,0.4240527961171473
1284.0,0.12113933543081634
1285.0,0.04343119921878339
1286.0,0.12455346244490706
1287.0,0.2405086392853914
1288.0,0.0
1289.0,0.0
1290.0,0.0
1291.0,0.0
1292.0,0.0
1293.0,0.0
1294.0,0.0
1295.0,0.0
1296.0,0.0
1297.0,0.0
1298.0,0.0
1299.0,0.0
1300.0,0.0
1301.0,0.0
1302.0,0.0
1303.0,0.0
1304.0,0.0
1305.0,0.0
1306.0,0.0
1307.0,0.0
1308.0,0.0
1309.0,0.0
1310.0,0.0
1311.0,0.0
1312.0,0.0
1313.0,0.0
1314.0,0.0
1315.0,0.0
1316.0,0.0
1317.0,0.0
1318.0,0.0
1319.0,0.0
1320.0,0.0
1321.0,0.0
1322.0,0.0
1323.0,0.0
1324.0,0.0
1325.0,0.0
1326.0,0.0
1327.0,0.0
1328.0,0.0
1329.0,0.0
1330.0,0.0
1331.0,0.0
1332.0,0.0
1333.0,0.0
1334.0,0.0
1335.0,0.0
1336.0,0.0
1337.0,0.0
1338.0,0.0
1339.0,0.0
1340.0,0.0
1341.0,0.0
1342.0,0.0
1343.0,0.0
1344.0,0.0
1345.0,0.0
1346.0,0.0
1347.0,0.0
1348.0,0.0
1349.0,0.0
1350.0,0.0
1351.0,0.0
1352.0,0.0
1353.0,0.0
1354.0,0.0
1355.0,0.0
1356.0,0.0
1357.0,0.0
1358.0,0.0
1359.0,0.0
1360.0,0.0
1361.0,0.0
1362.0,0.0
1363.0,0.0
1364.0,0.0
1365.0,0.0
1366.0,0.0
1367.0,0.0
1368.0,0.0
1369.0,0.0
1370.0,0.0
1371.0,0.0
1372.0,0.0
1373.0,0.0
1374.0,0.0
1375.0,0.0
1376.0,0.0
1377.0,0.0
1378.0,0.0
1379.0,0.0
1380.0,0.0
1381.0,0.0
1382.0,0.0
1383.0,0.0
1384.0,0.0
1385.0,0.0
1386.0,0.0
1387.0,0.0
1388.0,0.0
1389.0,0.0
1390.0,0.0
1391.0,0.0
1392.0,0.0
1393.0,0.0
1394.0,0.0
1395.0,0.0
1396.0,0.0
1397.0,0.0
1398.0,0.0
1399.0,0.0
1400.0,0.0
1401.0,0.0
1402.0,0.0
1403.0,0.0
1404.0,0.0
1405.0,0.0
1406.0,0.0
1407.0,0.0
1408.0,0.0
1409.0,0.0
1410.0,0.0
1411.0,0.0
1412.0,0.0
1413.0,0.0
1414.0,0.0
1415.0,0.0
1416.0,0.0
1417.0,0.0
1418.0,0.0
1419.0,0.0
1420.0,0.0
1421.0,0.0
1422.0,0.0
1423.0,0.0
1424.0,0.0
1425.0,0.0
1426.0,0.0
1427.0,0.0
1428.0,0.0
1429.0,0.0
1430.0,0.0
1431.0,0.0
1432.0,0.0
1433.0,0.0
1434.0,0.0
1435.0,0.0
1436.0,0.0
1437.0,0.0
1438.0,0.0
1439.0,0.0
1440.0,0.0
1441.0,0.0
1442.0,0.0
1443.0,0.0
1444.0,0.0
1445.0,0.0
1446.0,0.0
1447.0,0.0
1448.0,0.0
1449.0,0.0
1450.0,0.0
1451.0,0.0
1452.0,0.0
1453.0,0.0
1454.0,0.0
1455.0,0.0
1456.0,0.0
1457.0,0.0
1458.0,0.0
1459.0,0.0
1460.0,0.0
1461.0,0.0
1462.0,0.0
1463.0,0.0
1464.0,0.0
1465.0,0.0
1466.0,0.0
1467.0,0.0
1468.0,0.0
1469.0,0.0
1470.0,0.0
1471.0,0.0
1472.0,0.0
1473.0,0.0
1474.0,0.0
1475.0,0.0
1476.0,0.0
1477.0,0.0
1478.0,0.0
1479.0,0.0
1480.0,0.0
1481.0,0.0
1482.0,0.0
1483.0,0.0
1484.0,0.0
1485.0,0.0
1486.0,0.0
1487.0,0.0
1488.0,0.0
1489.0,0.0
1490.0,0.0
1491.0,0.0
1492.0,0.0
1493.0,0.0
1494.0,0.0
1495.0,0.0
1496.0,0.0
1497.0,0.0
1498.0,0.0
1499.0,0.0
1500.0,0.0
1501.0,0.0
1502.0,0.0
1503.0,0.0
1504.0,0.0
1505.0,0.0
1506.0,0.0
1507.0,0.0
1508.0,0.0
1509.0,0.0
1510.0,0.0
1511.0,0.0
1512.0,0.0
1513.0,0.0
1514.0,0.0
1515.0,0.0
1516.0,0.0
1517.0,0.0
1518.0,0.0
1519.0,0.0
1520.0,0.0
1521.0,0.0
1522.0,0.0
1523.0,0.0
1524.0,0.0
1525.0,0.0
1526.0,0.0
1527.0,0.0
1528.0,0.0
1529.0,0.0
1530.0,0.0
1531.0,0.0
1532.0,0.0
1533.0,0.0
1534.0,0.0
1535.0,0.0
1536.0,0.0
1537.0,0.0
1538.0,0.0
1539.0,0.0
1540.0,0.0
1541.0,0.0
1542.0,0.0
1543.0,0.0
1544.0,0.0
1545.0,0.0
1546.0,0.0
1547.0,0.0
1548.0,0.0
1549.0,0.0
1550.0,0.0
1551.0,0.0
1552.0,0.0
1553.0,0.0
1554.0,0.0
1555.0,0.0
1556.0,0.0
1557.0,0.0
1558.0,0.0
1559.0,0.0
1560.0,0.0
1561.0,0.0
1562.0,0.0
1563.0,0.0
1564.0,0.0
1565.0,0.0
1566.0,0.0
1567.0,0.0
1568.0,0.0
1569.0,0.0
1570.0,0.0
1571.0,0.0
1572.0,0.0
1573.0,0.0
1574.0,0.0
1575.0,0.0
1576.0,0.0
1577.0,0.0
1578.0,0.0
1579.0,0.0
1580.0,0.0
1581.0,0.0
1582.0,0.0
1583.0,0.0
1584.0,0.0
1585.0,0.0
1586.0,0.0
1587.0,0.0
1588.0,0.0
1589.0,0.0
1590.0,0.0
1591.0,0.0
1592.0,0.0
1593.0,0.0
1594.0,0.0
1595.0,0.0
1596.0,0.0
1597.0,0.0
1598.0,0.0
1599.0,0.0
