0.0,0.0
1.0,0.0
2.0,0.0
3.0,0.0
4.0,0.0
5.0,0.0
6.0,0.0
7.0,0.0
8.0,0.0
9.0,0.0
10.0,0.0
11.0,0.0
12.0,0.0
13.0,0.0
14.0,0.0
15.0,0.0
16.0,0.0
17.0,0.0
18.0,0.0
19.0,0.0
20.0,0.0
21.0,0.0
22.0,0.0
23.0,0.0
24.0,0.0
25.0,0.0
26.0,0.0
27.0,0.0
28.0,0.0
29.0,0.0
30.0,0.0
31.0,0.0
32.0,0.0
33.0,0.0
34.0,0.0
35.0,0.0
36.0,0.0
37.0,0.0
38.0,0.0
39.0,0.0
40.0,0.0
41.0,0.0
42.0,0.0
43.0,0.0
44.0,0.0
45.0,0.0
46.0,0.0
47.0,0.0
48.0,0.0
49.0,0.0
50.0,0.0
51.0,0.0
52.0,0.0
53.0,0.0
54.0,0.0
55.0,0.0
56.0,0.0
57.0,0.0
58.0,0.0
59.0,0.0
60.0,0.0
61.0,0.0
62.0,0.0
63.0,0.0
64.0,0.0
65.0,0.0
66.0,0.0
67.0,0.0
68.0,0.0
69.0,0.0
70.0,0.0
71.0,0.0
72.0,0.0
73.0,0.0
74.0,0.0
75.0,0.0
76.0,0.0
77.0,0.0
78.0,0.0
79.0,0.0
80.0,0.0
81.0,0.0
82.0,0.0
83.0,0.0
84.0,0.0
85.0,0.0
86.0,0.0
87.0,0.0
88.0,0.0
89.0,0.0
90.0,0.0
91.0,0.0
92.0,0.0
93.0,0.0
94.0,0.0
95.0,0.0
96.0,0.0
97.0,0.0
98.0,0.0
99.0,0.0
100.0,0.0
101.0,0.0
102.0,0.0
103.0,0.0
104.0,0.0
105.0,0.0
106.0,0.0
107.0,0.0
108.0,0.0
109.0,0.0
110.0,0.0
111.0,0.0
112.0,0.0
113.0,0.0
114.0,0.0
115.0,0.0
116.0,0.0
117.0,0.0
118.0,0.0
119.0,0.0
120.0,0.0
121.0,0.0
122.0,0.0
123.0,0.0
124.0,0.0
125.0,0.0
126.0,0.0
127.0,0.0
128.0,0.0
129.0,0.0
130.0,0.0
131.0,0.0
132.0,-1.8091537080251412
133.0,0.06305216724867149
134.0,1.6024586626879382
135.0,7.750496087595777
136.0,15.652223121946363
137.0,25.10462006449021
138.0,35.004324577103546
139.0,42.523114124669675
140.0,50.6569424619794
141.0,54.968291149971115
142.0,55.56379639347118
143.0,57.19192234915722
144.0,56.4987662889488
145.0,56.329389425004585
146.0,54.598194588373254
147.0,49.57799668691055
148.0,37.62985928378947
149.0,28.24448720431176
150.0,20.6230249123138
151.0,13.450960770778813
152.0,7.980239266345693
153.0,4.834621204570293
154.0,3.4714353422887787
155.0,2.989721027355067
156.0,2.0330428527003237
157.0,1.2665694260540281
158.0,1.554798379607749
159.0,0.8244780817600307
160.0,3.413498555744029
161.0,0.7695753305991785
162.0,2.2316356667198747
163.0,3.10356586873669
164.0,2.1870464214945664
165.0,2.5370261036959776
166.0,3.18485516138677
167.0,4.751022124534341
168.0,6.786072356443555
169.0,7.502740183106055
170.0,8.994705560975527
171.0,10.435035682376531
172.0,11.316941338499655
173.0,11.786539695937789
174.0,13.103550098201586
175.0,14.380869712801058
176.0,16.57214325962184
177.0,19.820804620675055
178.0,21.371034241162587
179.0,22.84455864297588
180.0,24.03614386739257
181.0,24.902801199844944
182.0,25.943759311111023
183.0,27.874205322766915
184.0,30.40785924142144
185.0,32.13032002809389
186.0,32.00441609015489
187.0,32.07358743573439
188.0,32.27594665414713
189.0,32.09317448150608
190.0,31.71785213331465
191.0,32.89447498563333
192.0,32.313505230625346
193.0,31.259654541228876
194.0,30.148697689143347
195.0,28.244654029334747
196.0,25.295590953454592
197.0,23.01045348393231
198.0,22.512888178557397
199.0,23.91745595488628
200.0,24.30890860668591
201.0,23.095232288386498
202.0,23.487962904018147
203.0,25.775751565077197
204.0,25.535936046126366
205.0,24.145206097688703
206.0,23.68115773364132
207.0,24.462601331468885
208.0,25.583042724807353
209.0,24.379562993274526
210.0,23.47179948696256
211.0,22.980101025615237
212.0,22.483202716561763
213.0,21.84854246473927
214.0,21.33061057557542
215.0,21.51127323813949
216.0,21.689090995423342
217.0,20.651786642252635
218.0,18.935991672750117
219.0,18.03014454218123
220.0,17.60514570809789
221.0,17.08061122505628
222.0,16.545996561923335
223.0,16.38065210517511
224.0,14.891451737892828
225.0,12.98745358031923
226.0,12.97362422195884
227.0,13.437746036997265
228.0,13.223219736941385
229.0,13.316514239785832
230.0,14.280109854260756
231.0,14.0020480297221
232.0,12.576528645948198
233.0,12.013201493366683
234.0,12.40111434166837
235.0,12.508646263110254
236.0,13.766612271912663
237.0,13.501878843548578
238.0,13.043864456599502
239.0,13.731246138747991
240.0,14.867591766055714
241.0,14.912349429552942
242.0,14.832899126640962
243.0,15.227614326129697
244.0,16.251006635855887
245.0,17.205406055492535
246.0,17.195104552011763
247.0,17.255781667825772
248.0,17.731835399613733
249.0,16.6577715984359
250.0,18.828859364302126
251.0,19.825378760087084
252.0,20.170797710869948
253.0,22.637463758865568
254.0,21.574904472759272
255.0,21.22446962960774
256.0,19.52908843010727
257.0,14.783292349475628
258.0,7.799647875610378
259.0,2.4549238200521364
260.0,0.0981158427065131
261.0,0.9539265251774847
262.0,1.7752439114950138
263.0,2.226420829462792
264.0,1.7857625084282696
265.0,1.4948233067401417
266.0,1.3888754547014663
267.0,0.3918097829868158
268.0,0.11824666656613285
269.0,0.38280999352601564
270.0,1.344856974087334
271.0,2.5654060470467575
272.0,3.4356804012171693
273.0,2.9003636794409546
274.0,3.4690683740949906
275.0,4.599468254391551
276.0,4.009963491684079
277.0,4.740219667948022
278.0,5.410462838324755
279.0,6.874169627781365
280.0,8.842714834927412
281.0,8.731207534256226
282.0,10.97846441647529
283.0,12.960584866344073
284.0,13.845391240237008
285.0,14.663235018928843
286.0,18.224457753978147
287.0,20.33367098250491
288.0,22.560041549667602
289.0,26.17148928928762
290.0,30.83643667527477
291.0,33.66921542142913
292.0,36.3980603100092
293.0,38.074310462105075
294.0,37.923085108064576
295.0,37.43654542930507
296.0,40.319621043664384
297.0,42.49101714287308
298.0,43.257219286633216
299.0,43.48861403582951
300.0,41.96171638374101
301.0,38.45999169105648
302.0,37.17709737325116
303.0,38.33341864631505
304.0,39.388485628917245
305.0,43.019212402358946
306.0,46.53097061977623
307.0,51.98520393051255
308.0,59.270063737742184
309.0,64.31776274363462
310.0,70.61947581974299
311.0,76.36843611218644
312.0,83.31770566883091
313.0,92.84904259396924
314.0,101.48406634630348
315.0,114.02812113607044
316.0,129.8687790097016
317.0,147.21298270240467
318.0,165.3124681917957
319.0,189.21465292761224
320.0,219.36902323621038
321.0,248.80776344041723
322.0,274.3356314697535
323.0,298.4854515709933
324.0,301.6919334843325
325.0,272.191986813201
326.0,221.4262157794069
327.0,162.70109908314248
328.0,113.28392526005864
329.0,78.08369826610145
330.0,54.78311882795123
331.0,38.435094320149766
332.0,25.486771013398247
333.0,19.329286624563164
334.0,14.548613994483624
335.0,10.837754367609259
336.0,7.947797956826642
337.0,5.4142612225652345
338.0,3.7293078926269234
339.0,2.4680980312443253
340.0,1.666011995944912
341.0,1.2508273131373384
342.0,0.8235609748530706
343.0,0.6833694976936344
344.0,1.2200934850930463
345.0,0.5827875332288107
346.0,0.006305075971465769
347.0,0.618446063088641
348.0,0.9164146014537233
349.0,1.3928807364259292
350.0,1.293618165346408
351.0,0.3061590089106715
352.0,0.2934315357301643
353.0,0.3641102448681121
354.0,0.1717989369840265
355.0,0.18879140083404491
356.0,0.7787968436829857
357.0,0.08653275878497277
358.0,0.6340177537549861
359.0,0.814378335329966
360.0,0.5873384435597928
361.0,0.4206636330331522
362.0,1.6318525167595614
363.0,1.697024046327317
364.0,2.4032379109936794
365.0,3.357001836185883
366.0,3.2184882884435746
367.0,5.121324781017309
368.0,6.532286326065981
369.0,7.655324245703845
370.0,8.79942988965507
371.0,10.114785891029518
372.0,12.028364083547316
373.0,13.574421497537713
374.0,16.228179304853324
375.0,20.09775398596997
376.0,23.67700405000617
377.0,27.10238642175638
378.0,31.567196028905364
379.0,38.14982095858974
380.0,46.68911981632542
381.0,55.87219201985309
382.0,66.3089472632835
383.0,76.16004555642907
384.0,84.13050312228152
385.0,91.13897744100095
386.0,100.00693486122802
387.0,110.72139358751811
388.0,124.8240741755916
389.0,140.6224378010216
390.0,159.48790558354554
391.0,187.17092953827108
392.0,215.21501235031783
393.0,246.94567308469126
394.0,279.30912852215545
395.0,309.22407689647525
396.0,334.2752598932755
397.0,345.5175200379753
398.0,331.9009938412228
399.0,300.634076883025
400.0,259.87088301820825
401.0,209.36362595158076
402.0,167.0056515371791
403.0,132.6511304946224
404.0,104.71634192273568
405.0,82.05556609758409
406.0,65.12196588447678
407.0,53.88768412146185
408.0,44.514130960224676
409.0,37.827243449832416
410.0,34.084183169772906
411.0,30.357271294391914
412.0,26.576841665297344
413.0,24.459843840767626
414.0,23.264236759220495
415.0,22.674320915738228
416.0,23.34906737991239
417.0,22.913549454607118
418.0,24.33088336988464
419.0,25.803865136063262
420.0,26.956069946886537
421.0,30.40832034176234
422.0,31.403544781639063
423.0,30.140658911096164
424.0,28.68310937714496
425.0,26.86932623219079
426.0,21.921680824335127
427.0,17.569974732258288
428.0,14.665654269621978
429.0,12.77277920918656
430.0,11.922883474388598
431.0,12.471231182160553
432.0,11.645359586977714
433.0,12.386075884539938
434.0,13.334216859484325
435.0,13.989269871404206
436.0,15.674345445969262
437.0,19.357250754195675
438.0,22.601745901048652
439.0,25.16245942726755
440.0,28.263952566928594
441.0,32.88383913055415
442.0,37.090638421004435
443.0,42.024280228400094
444.0,46.41779945106794
445.0,50.25147690878286
446.0,54.1872005006593
447.0,57.462622258740446
448.0,59.327706111678026
449.0,59.93486157167816
450.0,58.017646612175525
451.0,52.490508716769696
452.0,44.70938660981135
453.0,36.427431909359036
454.0,29.31282735778109
455.0,23.516073981672918
456.0,18.86986286449325
457.0,15.56418278993814
458.0,11.094935066938747
459.0,9.540999221291747
460.0,8.195697319234618
461.0,5.565321057564772
462.0,4.631723602137996
463.0,4.170745137075687
464.0,3.439182606415604
465.0,2.104669946939012
466.0,0.9171193653856627
467.0,1.1226145092062327
468.0,0.27558265780548885
469.0,0.10627473839014245
470.0,0.25494158286200663
471.0,0.39939232883645404
472.0,0.39255482499768796
473.0,0.3635428853279472
474.0,0.11470868757767186
475.0,0.5965690356458195
476.0,0.6013429603333554
477.0,0.21865891334333398
478.0,0.32902772190935525
479.0,0.4478752651238893
480.0,0.8270810071013484
481.0,0.9014986668855408
482.0,0.4469394572414659
483.0,0.03456269529691642
484.0,0.6468782021196786
485.0,0.6395427195170683
486.0,0.12244890799453416
487.0,0.5698843622707651
488.0,0.13841431520760367
489.0,0.34587067755805867
490.0,0.2340355558448011
491.0,0.20896377367863753
492.0,0.39892599513547616
493.0,0.28438292315521163
494.0,0.8683919944212739
495.0,0.8499527358155724
496.0,0.7929302540777727
497.0,1.070254976683563
498.0,1.5460996190774177
499.0,1.8394097244483139
500.0,2.9332432788589036
501.0,3.0588592067910967
502.0,4.042127138971839
503.0,5.8070784740073185
504.0,5.975544225989855
505.0,6.278309917724935
506.0,7.062788436609756
507.0,8.384295736335915
508.0,9.740241461150504
509.0,10.884401842899893
510.0,13.251901609308469
511.0,15.292558417882363
512.0,16.87319335331373
513.0,19.436503072888193
514.0,22.90597461784214
515.0,25.284496272487228
516.0,29.758968872234
517.0,33.651263055193176
518.0,38.31309586171055
519.0,43.5279532418513
520.0,47.834137235420734
521.0,53.326087355459734
522.0,60.01604545534761
523.0,67.23077696114724
524.0,73.66870039858773
525.0,78.80544329304597
526.0,83.64114044448114
527.0,86.62957827644048
528.0,87.32835060535626
529.0,85.15307756180869
530.0,79.892494293799
531.0,72.32518175843217
532.0,65.74206279213682
533.0,59.32838838956722
534.0,51.944296283582524
535.0,44.5472834361246
536.0,38.36219334693485
537.0,33.21244050875201
538.0,28.989461507374443
539.0,24.913960652552237
540.0,20.92771887368831
541.0,17.765178819510894
542.0,15.690647392331133
543.0,12.673773768651817
544.0,10.538620279551797
545.0,9.752919460769885
546.0,8.566187829884706
547.0,5.983881052948321
548.0,4.394192778780535
549.0,3.731593657210738
550.0,2.6752590664610185
551.0,2.5173491432037576
552.0,3.1454460469088548
553.0,2.8570660391033207
554.0,1.241264692990196
555.0,1.4333561421228007
556.0,1.2482311534182908
557.0,1.2096626102691868
558.0,1.9455734695627702
559.0,1.9916657136570741
560.0,2.538133858008977
561.0,2.9841618640166514
562.0,3.1809368783121332
563.0,3.302084334050207
564.0,3.5309686654106174
565.0,3.721589967577878
566.0,4.613688105923574
567.0,3.8983683495929045
568.0,3.9188244942115213
569.0,4.767844035577528
570.0,3.3140596922117957
571.0,4.817208943017754
572.0,5.920431847450311
573.0,6.612850698847977
574.0,7.132752758794147
575.0,7.580005094681228
576.0,8.322905390792835
577.0,10.18456069559613
578.0,10.63499581020899
579.0,10.861134834756022
580.0,10.870318620665419
581.0,10.072365730766737
582.0,11.175848877017582
583.0,9.48468441595097
584.0,9.161320961997967
585.0,8.731090949815895
586.0,7.39757667525154
587.0,7.198088365697222
588.0,4.594936049647272
589.0,3.508468976187402
590.0,2.4894983651473366
591.0,1.9370386275594558
592.0,1.9942918854648104
593.0,0.3829267627132819
594.0,0.20942558657390953
595.0,0.9486264147108415
596.0,0.33293792036449094
597.0,0.4002005712618976
598.0,1.4474993588111107
599.0,1.00092708945983
600.0,1.2687245339558095
601.0,0.5880887215694169
602.0,0.40315109719005937
603.0,1.0285076046826152
604.0,1.2551541194315627
605.0,0.3107025814899208
606.0,0.3283043410557484
607.0,0.08777465342126622
608.0,0.9075219024936101
609.0,1.786139171156564
610.0,2.198042712622306
611.0,3.3633745889017383
612.0,3.9095478287792935
613.0,5.64614299837113
614.0,7.217518158730594
615.0,7.991034551667237
616.0,10.152895533139084
617.0,13.49896159352374
618.0,15.689008932983333
619.0,18.70235147424818
620.0,22.526890995185337
621.0,26.357469570745067
622.0,30.526065398299227
623.0,32.617365180803695
624.0,33.07540215015885
625.0,30.694948751045263
626.0,25.469759089055504
627.0,19.149052986131764
628.0,14.292912957908454
629.0,10.042800860195289
630.0,6.928223477565895
631.0,5.539879724388129
632.0,4.665146621922718
633.0,3.5618213367718985
634.0,4.467515999317284
635.0,2.555721662681336
636.0,2.2252985147354694
637.0,2.8551460593613056
638.0,3.136679984516883
639.0,2.530645003657217
640.0,1.8608308945812666
641.0,2.1162782579928305
642.0,2.3299770291311046
643.0,2.309917973710002
644.0,2.3854542715833555
645.0,2.8304901758656755
646.0,3.478581591622695
647.0,3.9877251911226823
648.0,4.673863167457048
649.0,5.044625269783405
650.0,5.187249399390166
651.0,5.585989243406999
652.0,6.097380437241389
653.0,6.997164586694288
654.0,7.772906334185628
655.0,8.75876288864169
656.0,9.992151255778708
657.0,11.631354466971603
658.0,13.377533534907235
659.0,14.735850716901709
660.0,16.584360853379426
661.0,18.77946791941226
662.0,21.659505177991175
663.0,25.582738744953183
664.0,29.900929210531764
665.0,34.829794409549116
666.0,42.56179907535966
667.0,52.37118056952425
668.0,63.17500309041372
669.0,75.80396267893234
670.0,93.52537131411903
671.0,114.21544141786082
672.0,139.0028401044024
673.0,167.59336931228916
674.0,200.40234941703164
675.0,236.8062053145882
676.0,275.6959023192912
677.0,322.69548859050644
678.0,382.181948899102
679.0,452.9257173155817
680.0,537.7695954134296
681.0,636.5526484411164
682.0,744.6390601762478
683.0,864.1412214846661
684.0,980.1851555001896
685.0,1078.3544788855563
686.0,1108.6632373728041
687.0,1045.7449358188585
688.0,907.4244950434849
689.0,734.1269233407975
690.0,572.4388714671647
691.0,442.27606450102985
692.0,344.7806298615731
693.0,272.1589135090946
694.0,218.78399098616518
695.0,178.25428626041878
696.0,147.28850639731854
697.0,124.85592535586393
698.0,107.36078524448611
699.0,91.36765029989434
700.0,77.31344508388578
701.0,69.49823455635634
702.0,60.653317937043774
703.0,52.77025663471806
704.0,46.63417448472824
705.0,41.19561695652468
706.0,36.70021024815451
707.0,34.536340047453756
708.0,29.66229680873893
709.0,27.11920018951217
710.0,24.23809115994302
711.0,20.944511377950015
712.0,18.12461013892567
713.0,15.84116412045416
714.0,13.468951098502172
715.0,12.164386962672003
716.0,11.510162666702634
717.0,9.902369462206206
718.0,8.039012276204152
719.0,7.235968274569242
720.0,6.617438154321711
721.0,5.669480470348378
722.0,3.824497253722226
723.0,3.4173009233225944
724.0,3.4947972068668913
725.0,2.528524029948482
726.0,0.7058841132523342
727.0,1.207472190046633
728.0,1.0489971270295293
729.0,0.5513298456806559
730.0,0.12014319671463519
731.0,0.11581495118095422
732.0,0.14982164007891774
733.0,0.9654872833325999
734.0,0.4227222149896127
735.0,0.010178503864414124
736.0,0.821785882085035
737.0,1.4668624406009303
738.0,1.115233364072803
739.0,0.8070573423859746
740.0,0.2047038231931311
741.0,0.6174127659214508
742.0,0.1918460093134738
743.0,0.3146053637725051
744.0,0.3202483544813792
745.0,0.7619797524427951
746.0,1.3456603477711628
747.0,0.7741041560430179
748.0,0.8288279854436371
749.0,1.190597046150949
750.0,1.401198804844585
751.0,1.7464951920311955
752.0,2.7010392510214194
753.0,3.256306224864594
754.0,3.9416448190568927
755.0,3.5911894530576034
756.0,3.8457910357008127
757.0,4.776740147407692
758.0,5.6374421367513845
759.0,6.653290223187597
760.0,8.341032132888346
761.0,10.308703921198848
762.0,11.897663766115777
763.0,12.532039017221711
764.0,13.811641682592604
765.0,16.39596402588714
766.0,16.58588834425714
767.0,17.19195154769786
768.0,19.00839581847543
769.0,19.647560225541902
770.0,19.842242169389387
771.0,19.37963753526305
772.0,17.210598208205234
773.0,17.032313110951275
774.0,16.371290744682735
775.0,13.826942947468215
776.0,11.834022733423067
777.0,11.171392601199576
778.0,10.57422009770014
779.0,9.046578301507308
780.0,9.077068856592344
781.0,7.647468968267983
782.0,6.683101386628009
783.0,6.933641372012689
784.0,6.583412701881033
785.0,4.719861872965159
786.0,3.6984550430013594
787.0,3.5163509494599516
788.0,3.4252798653589727
789.0,3.5904859404953506
790.0,2.0542020855223337
791.0,1.1913535495332215
792.0,2.7283661559934806
793.0,1.5351749201302092
794.0,2.349063010208145
795.0,2.0298484830244887
796.0,1.6829419460004813
797.0,1.4447125813548756
798.0,1.2362711058727085
799.0,1.1549508498054895
800.0,1.190592255510498
801.0,1.1289062745789409
802.0,0.9118636550334405
803.0,0.6910930088269366
804.0,0.8240503240973753
805.0,1.0375637877048862
806.0,0.8022677399482414
807.0,0.5313134068071454
808.0,1.1388704493258701
809.0,0.9357362586580187
810.0,0.36934939272584005
811.0,0.26258746029069374
812.0,0.35513670686755583
813.0,0.3896143799252913
814.0,0.22328612252212093
815.0,0.3133405323794091
816.0,0.9224289486084053
817.0,1.235479386840783
818.0,0.09286552863685282
819.0,0.5203304752472132
820.0,0.721049700496195
821.0,0.34229380994938047
822.0,0.22232178233254618
823.0,0.7358494610905904
824.0,0.22295347573888644
825.0,0.34300957538070037
826.0,0.6685237279855001
827.0,0.6793695831129444
828.0,0.9678715422214039
829.0,1.3984110810261272
830.0,0.20903098505589018
831.0,0.8798355430520532
832.0,1.3264853174375368
833.0,0.9987595704832659
834.0,1.301401799665419
835.0,2.0965169333887395
836.0,1.1255844715367884
837.0,1.3491308461786353
838.0,1.3915080907454886
839.0,0.3552437106617379
840.0,0.26289810772047567
841.0,1.29022049982385
842.0,1.9125843333231538
843.0,2.4034935589646693
844.0,1.8098866185023221
845.0,1.603482814022045
846.0,2.4033957804325805
847.0,2.8267636516592627
848.0,2.3880357211808345
849.0,2.1770254456865303
850.0,2.5915631140813304
851.0,1.9103798172335928
852.0,2.4772199339430467
853.0,2.741427395177879
854.0,3.501062481674065
855.0,3.9433590715512095
856.0,2.984646257687136
857.0,3.2934187237643946
858.0,3.603890254758842
859.0,3.093889537566422
860.0,4.331590798969824
861.0,4.932359858883157
862.0,4.513124071650577
863.0,3.8335480170153557
864.0,2.625914091471535
865.0,3.1513244403848484
866.0,3.8682761589116037
867.0,3.1097253332278343
868.0,3.169152739534395
869.0,3.176850560350713
870.0,2.668244578177655
871.0,2.7833196216862923
872.0,2.892465318977692
873.0,3.6691632040653177
874.0,3.6979713490737374
875.0,3.5836123776675106
876.0,3.9098344358544637
877.0,3.632053328480212
878.0,3.1265454248039246
879.0,4.328157600575178
880.0,3.863544595033146
881.0,3.4599521571065694
882.0,3.3394515107762035
883.0,3.4390092576270166
884.0,4.2111774234306685
885.0,4.7427867541062305
886.0,4.366437782104572
887.0,4.781510213621579
888.0,4.475432644155118
889.0,4.788673354809614
890.0,4.312083948589645
891.0,4.548590463825904
892.0,4.873702335521908
893.0,5.020811113991537
894.0,5.955390311551107
895.0,4.868556391227473
896.0,4.957054946232166
897.0,6.208275078055685
898.0,7.070268528169542
899.0,7.302230571997183
900.0,7.52768016347564
901.0,8.142919030179153
902.0,8.630136009675292
903.0,8.621597193415042
904.0,9.759940533752275
905.0,10.486794043762588
906.0,10.814933587712156
907.0,11.632670668730237
908.0,13.028634543867625
909.0,14.32881044802553
910.0,15.412678625240192
911.0,16.83476040262776
912.0,16.52706663898878
913.0,16.891827342603175
914.0,17.263151892602234
915.0,18.97748743879801
916.0,20.44691406179346
917.0,19.430889061179606
918.0,19.489469059968375
919.0,18.686405746721974
920.0,18.36545304741732
921.0,18.088818496730067
922.0,16.23338177865676
923.0,14.122168860641771
924.0,12.589287203308427
925.0,11.166870510099699
926.0,10.878241374146752
927.0,10.08485625901823
928.0,8.87616012765293
929.0,8.210233666338652
930.0,7.5269533203526695
931.0,6.9703005215850435
932.0,6.805827339994942
933.0,6.643967749399586
934.0,5.842662030839231
935.0,5.204733751933779
936.0,4.0251421407633
937.0,4.381149221048665
938.0,4.496154244726988
939.0,4.153327580222207
940.0,3.9775847630550727
941.0,4.376230631692215
942.0,5.421589537034704
943.0,3.131834367222615
944.0,1.0872407391426826
945.0,1.3052019179573386
946.0,1.8736415066092973
947.0,1.6422949789606736
948.0,1.0322157497562152
949.0,0.9098402669713067
950.0,1.1172010774698378
951.0,1.1097048094911037
952.0,0.8912566702276383
953.0,0.10057537517863305
954.0,0.3951249639448777
955.0,0.22046766557041494
956.0,0.5711202339887641
957.0,0.37988310721917
958.0,0.1540969400667397
959.0,0.1701191114617257
960.0,0.05711625587101134
961.0,0.2851524372790776
962.0,0.32339126388570644
963.0,0.18689680732154065
964.0,0.4361202734158503
965.0,1.423989899005149
966.0,1.0165217537599056
967.0,0.8033733447065777
968.0,1.3254871333854221
969.0,1.9531437013949355
970.0,0.9178723414122185
971.0,1.1118490107436543
972.0,2.038451743288818
973.0,1.930330140609598
974.0,1.1028943200366366
975.0,0.3013247792176528
976.0,2.178032166091991
977.0,0.636687072054185
978.0,1.5784930407432403
979.0,0.2019107298390883
980.0,0.5702950791256706
981.0,1.4424180698746214
982.0,0.4720638891709177
983.0,0.1698633990967373
984.0,0.33914994806692517
985.0,0.2162178600017131
986.0,1.6526797433780083
987.0,2.1841676152018947
988.0,2.834807834024337
989.0,4.372804218276493
990.0,5.676961472803304
991.0,6.538996541894741
992.0,8.672721015729577
993.0,11.6161308732106
994.0,15.434882909733703
995.0,19.089420743257527
996.0,22.827986571669726
997.0,27.87158297564154
998.0,32.30769969038518
999.0,37.05819342215332
1000.0,44.51331916752644
1001.0,52.223846523227735
1002.0,59.300833748112396
1003.0,67.94558557838609
1004.0,77.31366016932742
1005.0,86.9950004681937
1006.0,97.72506345389503
1007.0,109.94964052779915
1008.0,122.79346359315409
1009.0,135.4330476999537
1010.0,147.79835647544493
1011.0,156.67149523806592
1012.0,158.1768339085955
1013.0,156.41620737702283
1014.0,150.14603009373192
1015.0,139.5913622136555
1016.0,124.9374050429269
1017.0,108.52998461244916
1018.0,94.09443767299953
1019.0,82.50515481971985
1020.0,70.24899643951957
1021.0,62.19423026279827
1022.0,54.058089401601805
1023.0,46.85290697648016
1024.0,40.72149923321817
1025.0,35.79900780331969
1026.0,31.685123134887426
1027.0,28.33641638851108
1028.0,26.828828953603132
1029.0,23.90150331727077
1030.0,22.404810118446374
1031.0,21.760068573258245
1032.0,22.148192315243264
1033.0,22.304375146915326
1034.0,21.41607479527069
1035.0,20.66575171125455
1036.0,21.629811821563354
1037.0,23.9476010474834
1038.0,25.650794528522486
1039.0,28.454944482994716
1040.0,31.23280807284607
1041.0,34.13013410048579
1042.0,37.67354236817913
1043.0,42.26802382143272
1044.0,48.517537481490635
1045.0,55.829854827478144
1046.0,62.903617558788085
1047.0,71.55421218006228
1048.0,81.23128531956509
1049.0,92.90497180479875
1050.0,103.98303989995146
1051.0,119.36833900041513
1052.0,136.63909408435376
1053.0,157.84716867478642
1054.0,183.39136195393084
1055.0,210.02721569416312
1056.0,240.0811606272302
1057.0,272.9119566048395
1058.0,316.84056111975656
1059.0,363.9329530788831
1060.0,412.18378107465355
1061.0,470.0767794395384
1062.0,531.0021654868096
1063.0,593.0203887673833
1064.0,656.7521888616941
1065.0,715.369619308362
1066.0,768.2967927843821
1067.0,804.1320807870719
1068.0,823.6542660506711
1069.0,820.927201354732
1070.0,799.6191039587171
1071.0,759.9075312558822
1072.0,707.8519618683657
1073.0,646.8293623123933
1074.0,582.0226537318206
1075.0,522.7924863503947
1076.0,461.48465472413
1077.0,412.75213065475884
1078.0,364.2884825704015
1079.0,326.7942842311507
1080.0,291.594267688351
1081.0,258.89438066707487
1082.0,231.52908827993434
1083.0,208.1708470323026
1084.0,186.61508663009954
1085.0,166.4273542866105
1086.0,147.23182509846242
1087.0,131.32148652946225
1088.0,115.07497513012702
1089.0,101.93916027421673
1090.0,89.69028134495723
1091.0,78.64725986687088
1092.0,70.87216300395183
1093.0,63.51980516290847
1094.0,54.232428763974966
1095.0,47.53150834492594
1096.0,42.76632116072685
1097.0,38.26327066147792
1098.0,32.815833658432425
1099.0,28.24938093668421
1100.0,24.12540195823089
1101.0,21.061467305023
1102.0,18.436174329055845
1103.0,15.678769327011553
1104.0,13.54294317646331
1105.0,11.882008827356024
1106.0,8.983945168917469
1107.0,8.625132216897553
1108.0,7.512802894570641
1109.0,4.094684982565497
1110.0,3.6203219177193287
1111.0,4.2815845092556115
1112.0,3.6721172918633123
1113.0,2.4366291397145536
1114.0,1.6433640944091976
1115.0,1.3935012494676928
1116.0,2.198243479088417
1117.0,0.2947668036845246
1118.0,1.2873648462014704
1119.0,0.9014538042080329
1120.0,0.4899486675427558
1121.0,0.3051833482842166
1122.0,0.4742592741239741
1123.0,0.4237817002241198
1124.0,0.6171612808618343
1125.0,0.10521360584924311
1126.0,0.42007720287391426
1127.0,0.939223862355166
1128.0,1.417421427980371
1129.0,0.09783106863311844
1130.0,1.4319704867078271
1131.0,2.9418229479379225
1132.0,3.180682259119497
1133.0,3.6200599447380957
1134.0,5.200784942488897
1135.0,7.150542278608806
1136.0,8.871828329650072
1137.0,10.068361629739766
1138.0,9.027450589373684
1139.0,10.04545663439985
1140.0,8.953914574344779
1141.0,9.758522809902203
1142.0,10.508722110234375
1143.0,9.94849547280542
1144.0,9.617422847485845
1145.0,9.798062040253013
1146.0,9.522847677740806
1147.0,8.736091267440834
1148.0,8.34670866215308
1149.0,8.098095120316584
1150.0,7.500117487356701
1151.0,5.882943312842184
1152.0,3.0977910710046883
1153.0,2.6643207083603575
1154.0,3.0087909642606787
1155.0,1.6889826601386566
1156.0,0.23262865453631243
1157.0,0.4106297242109622
1158.0,1.2450008705626132
1159.0,1.874716568421762
1160.0,1.5029439208001678
1161.0,2.6515632477163398
1162.0,1.9092228595225555
1163.0,1.8590317587791736
1164.0,2.074326870218809
1165.0,1.728757900028041
1166.0,1.8052981860487112
1167.0,0.9660920644561708
1168.0,0.8596776879717267
1169.0,1.3517556666995494
1170.0,0.3018592774275633
1171.0,0.46575203105354795
1172.0,0.11615147400618589
1173.0,0.3886252847025982
1174.0,0.9572811366360551
1175.0,1.1878465953378798
1176.0,2.006273043031886
1177.0,2.1782801910159444
1178.0,2.9549630237624305
1179.0,2.8703261500817483
1180.0,2.7833479189053385
1181.0,3.8456231203617017
1182.0,3.9652815548468165
1183.0,3.6597090071792344
1184.0,3.712871771709471
1185.0,5.244343156742141
1186.0,4.3393839387009905
1187.0,5.129044663134471
1188.0,4.942663934876118
1189.0,5.267838757573789
1190.0,5.735379551298855
1191.0,5.98240153826528
1192.0,6.30421237884252
1193.0,6.747512470666674
1194.0,6.738206182922471
1195.0,6.058562557470784
1196.0,6.701689374143642
1197.0,6.327902513975043
1198.0,5.961688339506186
1199.0,5.998990164649112
1200.0,7.090673284352616
1201.0,7.688227747466125
1202.0,7.119951733396931
1203.0,6.966995002730924
1204.0,7.297788003178967
1205.0,6.880721062818571
1206.0,6.351743353872172
1207.0,6.523095115765657
1208.0,5.937517386799476
1209.0,8.104839192280917
1210.0,7.834369406861065
1211.0,7.319688865160346
1212.0,7.9034377209025815
1213.0,7.518880821518012
1214.0,8.0729432727454
1215.0,8.010908096434491
1216.0,8.084409954232823
1217.0,8.148006571308
1218.0,7.281102202398676
1219.0,6.874882786410046
1220.0,6.905305962053632
1221.0,7.024231752053808
1222.0,8.26975556063379
1223.0,7.83559899423932
1224.0,7.182264950401377
1225.0,6.96782115139058
1226.0,7.715151724319252
1227.0,7.777573481042933
1228.0,8.40947365227893
1229.0,8.48030729952455
1230.0,8.949286206291852
1231.0,9.650307054222669
1232.0,9.525498071706693
1233.0,10.491688321805759
1234.0,12.182447396692517
1235.0,13.315709806273262
1236.0,14.637959385986392
1237.0,15.475060639982871
1238.0,16.99426407779925
1239.0,18.453897476464267
1240.0,17.951201911783954
1241.0,17.628112208317255
1242.0,18.1763396757917
1243.0,17.08782930232188
1244.0,14.68687187004777
1245.0,13.596257994972607
1246.0,12.460538294589986
1247.0,10.408087206575294
1248.0,7.943104787815669
1249.0,7.329582053728772
1250.0,6.044630586126271
1251.0,4.906531423829994
1252.0,4.995472875402203
1253.0,4.890849744218036
1254.0,3.531461198685352
1255.0,3.076573790140756
1256.0,2.9519883956436543
1257.0,2.546255777629087
1258.0,2.0076933708108986
1259.0,1.3756389058942697
1260.0,1.6435286874508748
1261.0,1.0278783714025683
1262.0,0.05349565542711615
1263.0,1.016774520118385
1264.0,1.0154003124772302
1265.0,0.4598927535078
1266.0,0.6348635448898016
1267.0,0.9049466157100349
1268.0,1.133612279154816
1269.0,1.033444931800574
1270.0,0.31081770713050794
1271.0,0.2149631620068133
1272.0,0.6173922593805543
1273.0,0.6725415865971741
1274.0,1.2359966488179344
1275.0,1.100602887857262
1276.0,1.2497189414663188
1277.0,1.48777151288754
1278.0,0.6966041662547846
1279.0,0.7830911232788235
1280.0,0.6842236440087747
1281.0,0.7997350207031446
1282.0,1.5534805455364435
1283.0,1.3707736177620824
1284.0,1.1973349610490354
1285.0,1.655284642424291
1286.0,1.4586510202949556
1287.0,0.8738170109326915
1288.0,0.6690963676855438
1289.0,0.08083985758916296
1290.0,0.7238162217259532
1291.0,0.8574914997533004
1292.0,1.0662807245367216
1293.0,0.5127514806739472
1294.0,0.4277032978104112
1295.0,0.5593302835906687
1296.0,0.8340153743671859
1297.0,0.5223531660190427
1298.0,0.22822759423963004
1299.0,0.260620183876441
1300.0,0.5551535868228513
1301.0,0.3880180737441689
1302.0,0.010763015576978499
1303.0,0.07241730838032548
1304.0,0.0
1305.0,0.0
1306.0,0.0
1307.0,0.0
1308.0,0.0
1309.0,0.0
1310.0,0.0
1311.0,0.0
1312.0,0.0
1313.0,0.0
1314.0,0.0
1315.0,0.0
1316.0,0.0
1317.0,0.0
1318.0,0.0
1319.0,0.0
1320.0,0.0
1321.0,0.0
1322.0,0.0
1323.0,0.0
1324.0,0.0
1325.0,0.0
1326.0,0.0
1327.0,0.0
1328.0,0.0
1329.0,0.0
1330.0,0.0
1331.0,0.0
1332.0,0.0
1333.0,0.0
1334.0,0.0
1335.0,0.0
1336.0,0.0
1337.0,0.0
1338.0,0.0
1339.0,0.0
1340.0,0.0
1341.0,0.0
1342.0,0.0
1343.0,0.0
1344.0,0.0
1345.0,0.0
1346.0,0.0
1347.0,0.0
1348.0,0.0
1349.0,0.0
1350.0,0.0
1351.0,0.0
1352.0,0.0
1353.0,0.0
1354.0,0.0
1355.0,0.0
1356.0,0.0
1357.0,0.0
1358.0,0.0
1359.0,0.0
1360.0,0.0
1361.0,0.0
1362.0,0.0
1363.0,0.0
1364.0,0.0
1365.0,0.0
1366.0,0.0
1367.0,0.0
1368.0,0.0
1369.0,0.0
1370.0,0.0
1371.0,0.0
1372.0,0.0
1373.0,0.0
1374.0,0.0
1375.0,0.0
1376.0,0.0
1377.0,0.0
1378.0,0.0
1379.0,0.0
1380.0,0.0
1381.0,0.0
1382.0,0.0
1383.0,0.0
1384.0,0.0
1385.0,0.0
1386.0,0.0
1387.0,0.0
1388.0,0.0
1389.0,0.0
1390.0,0.0
1391.0,0.0
1392.0,0.0
1393.0,0.0
1394.0,0.0
1395.0,0.0
1396.0,0.0
1397.0,0.0
1398.0,0.0
1399.0,0.0
1400.0,0.0
1401.0,0.0
1402.0,0.0
1403.0,0.0
1404.0,0.0
1405.0,0.0
1406.0,0.0
1407.0,0.0
1408.0,0.0
1409.0,0.0
1410.0,0.0
1411.0,0.0
1412.0,0.0
1413.0,0.0
1414.0,0.0
1415.0,0.0
1416.0,0.0
1417.0,0.0
1418.0,0.0
1419.0,0.0
1420.0,0.0
1421.0,0.0
1422.0,0.0
1423.0,0.0
1424.0,0.0
1425.0,0.0
1426.0,0.0
1427.0,0.0
1428.0,0.0
1429.0,0.0
1430.0,0.0
1431.0,0.0
1432.0,0.0
1433.0,0.0
1434.0,0.0
1435.0,0.0
1436.0,0.0
1437.0,0.0
1438.0,0.0
1439.0,0.0
1440.0,0.0
1441.0,0.0
1442.0,0.0
1443.0,0.0
1444.0,0.0
1445.0,0.0
1446.0,0.0
1447.0,0.0
1448.0,0.0
1449.0,0.0
1450.0,0.0
1451.0,0.0
1452.0,0.0
1453.0,0.0
1454.0,0.0
1455.0,0.0
1456.0,0.0
1457.0,0.0
1458.0,0.0
1459.0,0.0
1460.0,0.0
1461.0,0.0
1462.0,0.0
1463.0,0.0
1464.0,0.0
1465.0,0.0
1466.0,0.0
1467.0,0.0
1468.0,0.0
1469.0,0.0
1470.0,0.0
1471.0,0.0
1472.0,0.0
1473.0,0.0
1474.0,0.0
1475.0,0.0
1476.0,0.0
1477.0,0.0
1478.0,0.0
1479.0,0.0
1480.0,0.0
1481.0,0.0
1482.0,0.0
1483.0,0.0
1484.0,0.0
1485.0,0.0
1486.0,0.0
1487.0,0.0
1488.0,0.0
1489.0,0.0
1490.0,0.0
1491.0,0.0
1492.0,0.0
1493.0,0.0
1494.0,0.0
1495.0,0.0
1496.0,0.0
1497.0,0.0
1498.0,0.0
1499.0,0.0
1500.0,0.0
1501.0,0.0
1502.0,0.0
1503.0,0.0
1504.0,0.0
1505.0,0.0
1506.0,0.0
1507.0,0.0
1508.0,0.0
1509.0,0.0
1510.0,0.0
1511.0,0.0
1512.0,0.0
1513.0,0.0
1514.0,0.0
1515.0,0.0
1516.0,0.0
1517.0,0.0
1518.0,0.0
1519.0,0.0
1520.0,0.0
1521.0,0.0
1522.0,0.0
1523.0,0.0
1524.0,0.0
1525.0,0.0
1526.0,0.0
1527.0,0.0
1528.0,0.0
1529.0,0.0
1530.0,0.0
1531.0,0.0
1532.0,0.0
1533.0,0.0
1534.0,0.0
1535.0,0.0
1536.0,0.0
1537.0,0.0
1538.0,0.0
1539.0,0.0
1540.0,0.0
1541.0,0.0
1542.0,0.0
1543.0,0.0
1544.0,0.0
1545.0,0.0
1546.0,0.0
1547.0,0.0
1548.0,0.0
1549.0,0.0
1550.0,0.0
1551.0,0.0
1552.0,0.0
1553.0,0.0
1554.0,0.0
1555.0,0.0
1556.0,0.0
1557.0,0.0
1558.0,0.0
1559.0,0.0
1560.0,0.0
1561.0,0.0
1562.0,0.0
1563.0,0.0
1564.0,0.0
1565.0,0.0
1566.0,0.0
1567.0,0.0
1568.0,0.0
1569.0,0.0
1570.0,0.0
1571.0,0.0
1572.0,0.0
1573.0,0.0
1574.0,0.0
1575.0,0.0
1576.0,0.0
1577.0,0.0
1578.0,0.0
1579.0,0.0
1580.0,0.0
1581.0,0.0
1582.0,0.0
1583.0,0.0
1584.0,0.0
1585.0,0.0
1586.0,0.0
1587.0,0.0
1588.0,0.0
1589.0,0.0
1590.0,0.0
1591.0,0.0
1592.0,0.0
1593.0,0.0
1594.0,0.0
1595.0,0.0
1596.0,0.0
1597.0,0.0
1598.0,0.0
1599.0,0.0
