0.0,0.0
1.0,0.0
2.0,0.0
3.0,0.0
4.0,0.0
5.0,0.0
6.0,0.0
7.0,0.0
8.0,0.0
9.0,0.0
10.0,0.0
11.0,0.0
12.0,0.0
13.0,0.0
14.0,0.0
15.0,0.0
16.0,0.0
17.0,0.0
18.0,0.0
19.0,0.0
20.0,0.0
21.0,0.0
22.0,0.0
23.0,0.0
24.0,0.0
25.0,0.0
26.0,0.0
27.0,0.0
28.0,0.0
29.0,0.0
30.0,0.0
31.0,0.0
32.0,0.0
33.0,0.0
34.0,0.0
35.0,0.0
36.0,0.0
37.0,0.0
38.0,0.0
39.0,0.0
40.0,0.0
41.0,0.0
42.0,0.0
43.0,0.0
44.0,0.0
45.0,0.0
46.0,0.0
47.0,0.0
48.0,0.0
49.0,0.0
50.0,0.0
51.0,0.0
52.0,0.0
53.0,0.0
54.0,0.0
55.0,0.0
56.0,0.0
57.0,0.0
58.0,0.0
59.0,0.0
60.0,0.0
61.0,0.0
62.0,0.0
63.0,0.0
64.0,0.0
65.0,0.0
66.0,0.0
67.0,0.0
68.0,0.0
69.0,0.0
70.0,0.0
71.0,0.0
72.0,0.0
73.0,0.0
74.0,0.0
75.0,0.0
76.0,0.0
77.0,0.0
78.0,0.0
79.0,0.0
80.0,0.0
81.0,0.0
82.0,0.0
83.0,0.0
84.0,0.0
85.0,0.0
86.0,0.0
87.0,0.0
88.0,0.0
89.0,0.0
90.0,0.0
91.0,0.0
92.0,0.0
93.0,0.0
94.0,0.0
95.0,0.0
96.0,0.0
97.0,0.0
98.0,0.0
99.0,0.0
100.0,0.0
101.0,0.0
102.0,0.0
103.0,0.0
104.0,0.0
105.0,0.0
106.0,0.0
107.0,0.0
108.0,0.0
109.0,0.20863850381434138
110.0,0.1043364724922649
111.0,0.10456502905139396
112.0,0.026124626427746885
113.0,0.6011273190544018
114.0,0.7731498604252457
115.0,1.4461588135876344
116.0,2.0461706515123312
117.0,2.0300337055852378
118.0,2.666034683242868
119.0,3.1431752159723576
120.0,3.339427760991218
121.0,3.470411450306475
122.0,3.944478018075625
123.0,4.279149503919477
124.0,4.504239134290698
125.0,4.602049156322216
126.0,4.422741165748251
127.0,4.369274309666525
128.0,4.489970365856243
129.0,4.640064117694281
130.0,4.418581190573126
131.0,5.400171059155493
132.0,5.83100833787268
133.0,6.0301604751605815
134.0,7.080720301820174
135.0,7.592361727015488
136.0,8.586971360430658
137.0,9.698828901358421
138.0,10.376052087668146
139.0,11.116844294536262
140.0,10.846856844442458
141.0,10.63406493727284
142.0,10.766344714529886
143.0,10.102476940625495
144.0,9.71466994738479
145.0,9.396275959385154
146.0,8.79993376069679
147.0,7.453565520773257
148.0,5.594523414622656
149.0,4.036865162632154
150.0,2.93909873827845
151.0,2.0548746397677484
152.0,1.4924555458891902
153.0,0.8862184893378937
154.0,0.46049935666759734
155.0,0.27734165068260247
156.0,0.06250562218553789
157.0,0.02579973565779003
158.0,0.2133624059501285
159.0,0.4963822796998308
160.0,0.13063913953038064
161.0,0.09959007801745767
162.0,0.4147382640190697
163.0,0.5202812092330302
164.0,0.05018129094765767
165.0,0.058521982324172196
166.0,0.012571800411393509
167.0,0.10764282815262606
168.0,0.24661568369268833
169.0,0.7100371300364285
170.0,0.8097818669497538
171.0,1.1411753987983206
172.0,1.4981902166491052
173.0,1.251271810091863
174.0,1.36234567686674
175.0,1.4551566764404065
176.0,1.6526593139874919
177.0,2.1502159298993595
178.0,2.6362688893370025
179.0,3.2838047149179355
180.0,3.9778353457212883
181.0,4.4247040203718235
182.0,4.05953158747742
183.0,3.923230122008151
184.0,3.9648629458128126
185.0,4.18902724219583
186.0,4.660127326343023
187.0,4.601712520956063
188.0,4.210956578401612
189.0,4.297626469076359
190.0,5.018690895546445
191.0,4.213604785793221
192.0,4.5199588867911356
193.0,4.776454924121667
194.0,4.334597739288932
195.0,3.605236393220781
196.0,2.8794954510940967
197.0,2.9713359345582053
198.0,3.398114470008157
199.0,2.981707528641155
200.0,3.002143002151707
201.0,3.0981507399869046
202.0,3.343194002287701
203.0,3.581101063585436
204.0,2.852315133492985
205.0,3.1081649025601434
206.0,3.2180629758910237
207.0,3.132867775223085
208.0,3.827752725684322
209.0,4.354462426938293
210.0,3.9224050847482044
211.0,3.1230204950334874
212.0,2.5973474181141665
213.0,2.5443345845979897
214.0,3.117525366017887
215.0,3.2630358167193627
216.0,2.66638637743346
217.0,1.9137905642365536
218.0,2.816280836257641
219.0,2.530704820731181
220.0,1.8285174924668741
221.0,2.0623600211640274
222.0,2.3201913973699693
223.0,2.0332924346107766
224.0,2.072126952689404
225.0,2.2191847288147963
226.0,1.6292330213508999
227.0,1.277859706759787
228.0,1.6090458448782554
229.0,1.855153933602971
230.0,1.6613796868964155
231.0,1.8066931794461605
232.0,2.1453616203149886
233.0,2.0568669982409027
234.0,1.8367350967343112
235.0,2.519033955937218
236.0,1.9723748792797067
237.0,1.530472354791645
238.0,1.6694452261339132
239.0,2.336476609381059
240.0,2.198462167307886
241.0,2.3867087475208844
242.0,2.394884340183451
243.0,2.0705615810849918
244.0,2.044896389812462
245.0,3.0938734462489554
246.0,3.3964452409980694
247.0,3.1664805176820745
248.0,3.0103182763616054
249.0,2.6857543536056103
250.0,2.634487889275103
251.0,2.6761000793945233
252.0,2.8304758588344745
253.0,3.1676152103093544
254.0,3.4065294558849484
255.0,3.4180453962965784
256.0,3.2335886220976504
257.0,2.604577026016043
258.0,1.101280537056765
259.0,0.5320355060449901
260.0,0.33556277423447367
261.0,0.3629688370310054
262.0,0.43158658527436333
263.0,0.4484018897106937
264.0,0.8629891714700743
265.0,0.8627671943345191
266.0,0.32462028116996267
267.0,1.107345684405038
268.0,0.4355405025019011
269.0,0.06269896629571459
270.0,0.16260048099322655
271.0,0.4809960540095522
272.0,1.3472816996843344
273.0,1.3098483019754668
274.0,1.3609176823010085
275.0,1.3970389202423972
276.0,1.008750513459447
277.0,1.0219969771456108
278.0,1.2143241658423638
279.0,1.3167823571891721
280.0,1.410638217486139
281.0,1.926675877068453
282.0,2.8042525984420847
283.0,2.46035933312961
284.0,1.9295005111403276
285.0,2.4081313316975304
286.0,3.266178546803895
287.0,3.2752295076441205
288.0,3.182291539628427
289.0,3.584981013573168
290.0,4.2116110584640545
291.0,4.136053898372599
292.0,3.963249995272085
293.0,4.826226380880119
294.0,6.05484633421426
295.0,6.584468808265336
296.0,7.40296600116432
297.0,7.442347104076213
298.0,7.869851352385964
299.0,8.66320984067151
300.0,8.434820734107763
301.0,8.905591099953664
302.0,8.868803306655947
303.0,9.218386550304531
304.0,10.644370930441468
305.0,11.711203785304546
306.0,12.448290271768872
307.0,13.232988613252866
308.0,14.217363638417869
309.0,15.436367518222946
310.0,16.96667077417954
311.0,18.027244443824763
312.0,20.18133251530251
313.0,22.884625318330755
314.0,24.52444926230662
315.0,27.686463918483813
316.0,32.21024482250836
317.0,37.0409400641128
318.0,42.95107030390396
319.0,51.58273667362957
320.0,62.71066153781046
321.0,73.88229831100537
322.0,86.85211344399764
323.0,99.33721443515365
324.0,104.77584899566247
325.0,97.71722505367204
326.0,81.35409549221798
327.0,61.69802781478735
328.0,43.354499963478986
329.0,29.238667973002148
330.0,20.44387457313612
331.0,14.698026119454394
332.0,10.857540147148187
333.0,8.194222244281237
334.0,5.136458198221758
335.0,4.226386007040668
336.0,3.640383886560645
337.0,2.688998032631541
338.0,1.9447945830319102
339.0,1.3933944113403027
340.0,0.7870448259027742
341.0,0.8380449507085321
342.0,0.9312599968682272
343.0,0.3009853172713823
344.0,0.6130527400998875
345.0,0.10564353481480626
346.0,0.2917917501729315
347.0,0.07118207855103476
348.0,0.38796182165116927
349.0,0.1798842835499182
350.0,0.08806274660058283
351.0,0.09786807804260225
352.0,0.40829183141043146
353.0,0.3055779903145826
354.0,0.0816961716127208
355.0,0.06075116076936838
356.0,0.08093700656654956
357.0,0.18388271800337183
358.0,0.2695540764869164
359.0,0.06813162941922755
360.0,0.4899261138357218
361.0,0.9137907557354388
362.0,1.012107941402317
363.0,0.9618764843265062
364.0,0.6874815176178353
365.0,0.8314291829382571
366.0,1.3008366953117296
367.0,1.7554357489373629
368.0,1.9511737983144735
369.0,2.4611991148289065
370.0,2.2316019288692415
371.0,2.56428686658175
372.0,3.8227065596174494
373.0,4.657905188769854
374.0,4.643809006956419
375.0,5.256248579650225
376.0,6.008384816540885
377.0,6.89220053644825
378.0,8.887963282488958
379.0,10.239829214891442
380.0,10.944345529670398
381.0,12.636669768675093
382.0,15.097226352110154
383.0,16.48438640229816
384.0,17.713069112358426
385.0,19.11808759552055
386.0,20.378263339477524
387.0,22.619185437361025
388.0,26.959573752019107
389.0,30.75800595453875
390.0,36.055346053756985
391.0,41.282432593912766
392.0,47.30596004987799
393.0,55.872787485315214
394.0,65.65712783988893
395.0,73.31083191229575
396.0,79.97352040144344
397.0,83.86175491313483
398.0,81.72276748768105
399.0,73.91870026593789
400.0,62.875286948904375
401.0,51.35418658136451
402.0,40.62023668901709
403.0,31.09822603269046
404.0,24.061965489113756
405.0,18.464670934786685
406.0,14.015741791935296
407.0,11.260135190483682
408.0,9.818348403871704
409.0,6.929072609520846
410.0,5.298084874986191
411.0,4.542431560348323
412.0,3.7430836404539973
413.0,2.726261507990812
414.0,2.263054265307965
415.0,1.9289973817425
416.0,1.7622513715078292
417.0,1.6614080031351943
418.0,1.3743037641419868
419.0,0.7823022209106689
420.0,0.9858281963315702
421.0,1.0128691026292038
422.0,0.8667892223789468
423.0,0.8983276396036706
424.0,1.0761003046957445
425.0,0.3323986660983381
426.0,0.34198665728162664
427.0,0.35719639901128386
428.0,0.35227898780015743
429.0,0.4341445166836597
430.0,0.07303225008531444
431.0,0.04775739286935478
432.0,0.08948328854371301
433.0,0.1372638095548376
434.0,0.21766850248676722
435.0,0.6632833227404495
436.0,0.8169394976495818
437.0,0.7388884753900028
438.0,0.6844466858563542
439.0,0.9235887266320102
440.0,1.6527543991659004
441.0,1.9740606791809039
442.0,2.3532875548123466
443.0,3.046919445299136
444.0,3.767623909999621
445.0,4.029657758282922
446.0,4.35001191417204
447.0,5.143402370756421
448.0,5.691854399008198
449.0,5.916809759516487
450.0,6.017357627830572
451.0,5.813443599057458
452.0,4.430066595411033
453.0,3.62371637431531
454.0,3.179719691205404
455.0,2.4789570802186502
456.0,1.7282280568507467
457.0,1.5003302986508658
458.0,1.1596519801607528
459.0,0.8094493318345736
460.0,0.602528907328819
461.0,0.42030097083901585
462.0,0.18236301045042566
463.0,0.24373979908829052
464.0,0.3219652017055596
465.0,0.2535304102216518
466.0,0.0859683998707554
467.0,0.08984510377677023
468.0,0.18199994374015846
469.0,0.020787299336741945
470.0,0.0630461019796563
471.0,0.13124913045673628
472.0,0.11582621873249282
473.0,0.2062147588394915
474.0,0.31115677338817915
475.0,0.2677792756891429
476.0,0.20789049854457678
477.0,0.1738627756394179
478.0,0.2027868879248444
479.0,0.05725110383418357
480.0,0.0769267292773456
481.0,0.20477635498752506
482.0,0.36761056490333127
483.0,0.8687094382821255
484.0,0.23026697382743236
485.0,0.30299520710841504
486.0,0.09201643375491522
487.0,0.3224811106048431
488.0,0.2694022140548878
489.0,0.020336197993757056
490.0,0.2495995161599451
491.0,0.3229815715025566
492.0,0.1244021188189472
493.0,0.042931325215824996
494.0,0.3457335914743702
495.0,0.21778369367717373
496.0,0.17721314148419842
497.0,0.4112777775813614
498.0,0.6180210508721148
499.0,0.5446689079722493
500.0,0.32269577709633673
501.0,0.7717787605091055
502.0,0.794634824138243
503.0,0.801217612394197
504.0,0.9372876438128616
505.0,0.9635819731714694
506.0,1.189769749928142
507.0,1.1733925498864473
508.0,1.484015614132564
509.0,2.012084280999805
510.0,2.2833863685470717
511.0,2.0913387911672787
512.0,2.4802994650067833
513.0,3.0480061909133105
514.0,3.1139332941260074
515.0,3.081683905929617
516.0,3.5833770311783777
517.0,3.9541362178411026
518.0,4.260840086008266
519.0,4.670689621003981
520.0,5.48579198172012
521.0,6.376027216046343
522.0,6.552677488712787
523.0,7.528671573348665
524.0,7.852033768279203
525.0,8.631784330776211
526.0,9.557354606415734
527.0,9.978392247215039
528.0,10.219388637880776
529.0,10.485275060305879
530.0,9.310577003819112
531.0,8.56910854017155
532.0,8.129733736787745
533.0,7.175598526049053
534.0,6.660317249691618
535.0,5.295297061658052
536.0,4.625223328496502
537.0,4.195300440807925
538.0,3.6904390806462914
539.0,3.356374455491188
540.0,2.844639824984458
541.0,2.2480059522654328
542.0,1.968795275975456
543.0,1.8066174896961524
544.0,1.6275592040988487
545.0,1.4948112757503915
546.0,1.3794418781574564
547.0,1.0739268758273106
548.0,0.8731676392276065
549.0,0.439533117698201
550.0,0.06196060614365287
551.0,0.23809959668399425
552.0,0.5276421944795946
553.0,0.4996792518945178
554.0,0.35394948731061
555.0,0.3383214588737948
556.0,0.3261303312598992
557.0,0.13031633124982459
558.0,0.7141001710963987
559.0,0.28757757624356206
560.0,0.1354115241603262
561.0,0.19488851818438327
562.0,0.09699859933368246
563.0,0.4894063811294168
564.0,0.22767421008181607
565.0,0.29996142358165856
566.0,0.13327452318544122
567.0,0.3529504900518697
568.0,0.15668563631742655
569.0,0.03746268783521566
570.0,0.003763720513564365
571.0,0.2558369958522338
572.0,0.11308109166124528
573.0,0.39588014945441424
574.0,0.1316196801866884
575.0,0.1842331882942886
576.0,0.28988113474362015
577.0,0.4022007471668684
578.0,0.14217172515490734
579.0,0.1258486779417128
580.0,0.353654699490962
581.0,0.17364077290830285
582.0,0.5447177800504122
583.0,0.5876551764391141
584.0,0.13295482053125462
585.0,0.0885455196090063
586.0,0.6871100737039237
587.0,1.07136128609292
588.0,0.15899838369885366
589.0,0.048847890247446075
590.0,0.0899619448374333
591.0,0.10711655948225976
592.0,0.2075131845427918
593.0,0.019284510171117777
594.0,0.10868449757196444
595.0,0.08827072260094682
596.0,0.06774350921786515
597.0,0.3695371796373615
598.0,0.5461059818889233
599.0,0.2370812826569016
600.0,0.3649816859692694
601.0,0.4007048146100239
602.0,0.13665163845356076
603.0,0.04065229923069907
604.0,0.01592852073785122
605.0,0.11627740100912094
606.0,0.5077849121533162
607.0,0.6613507760875613
608.0,0.5798647234588259
609.0,0.7284316925774201
610.0,1.0070729256167759
611.0,1.0516141678353021
612.0,1.2239033398742507
613.0,1.593830354560474
614.0,2.09418460020332
615.0,2.6083410002068925
616.0,3.204138936321956
617.0,3.923173980040226
618.0,4.585943986075635
619.0,6.097110584160209
620.0,7.4072503069549605
621.0,9.183057335561179
622.0,10.911416959419235
623.0,11.779020885839492
624.0,12.002738321915237
625.0,11.365724770197495
626.0,9.179969144141397
627.0,7.142965718813444
628.0,5.359000977138014
629.0,3.7957724511521667
630.0,3.0080249304611697
631.0,2.1052560597117926
632.0,1.789578880525102
633.0,1.4368617008133557
634.0,1.0629120876948088
635.0,0.827913720757261
636.0,0.7772105029909885
637.0,0.9221696024943784
638.0,0.8416259061795331
639.0,0.9971705415943342
640.0,1.1290057621670508
641.0,1.1347821419376878
642.0,1.1182964082759426
643.0,1.2094420208227856
644.0,1.120441376465343
645.0,1.0885598363622118
646.0,0.9961269210266075
647.0,1.3549056586343795
648.0,1.587263797963434
649.0,1.1258853598403171
650.0,1.1376462177345636
651.0,1.824098038683456
652.0,2.004771049766483
653.0,2.218779143252818
654.0,2.379262652909485
655.0,2.4674161897557068
656.0,2.954505415301447
657.0,3.061983048515814
658.0,3.0855900941460574
659.0,4.285320765960047
660.0,5.103519070713401
661.0,5.678431050002705
662.0,6.6568912205498245
663.0,7.098468589004483
664.0,8.861057973456475
665.0,10.45593525058275
666.0,12.837392812157335
667.0,14.937893023469238
668.0,16.961214987002492
669.0,20.57546609082205
670.0,24.677653481881677
671.0,29.41728483366403
672.0,34.849299918880156
673.0,39.64187505198815
674.0,44.60194305477545
675.0,51.2871536764995
676.0,60.160511869117165
677.0,68.44870924609076
678.0,80.9837571464425
679.0,96.63028448024629
680.0,117.10939923289425
681.0,143.05786647543374
682.0,173.91364059816544
683.0,208.8922009698176
684.0,243.8665147005589
685.0,277.33907409379
686.0,290.9369523217185
687.0,273.9570469644242
688.0,235.0404888371049
689.0,190.1932830729298
690.0,146.03525971775235
691.0,113.55822810681536
692.0,88.36546636916981
693.0,68.19827230234571
694.0,53.783737805001095
695.0,44.35167053717533
696.0,37.02749940905644
697.0,29.64270325454945
698.0,24.98017551725894
699.0,21.681370925205467
700.0,18.99819294321235
701.0,16.755650856858676
702.0,14.631873411118573
703.0,12.272408572627876
704.0,10.630631494756743
705.0,9.680438079126077
706.0,8.61155020727319
707.0,7.503558529896806
708.0,6.779711388693853
709.0,6.376973352586714
710.0,5.608099593671995
711.0,5.285415806496309
712.0,4.161187081000981
713.0,3.5935533832742395
714.0,3.3456632594964844
715.0,2.73479259725743
716.0,2.017555695760345
717.0,1.9871747761451168
718.0,2.048692195244621
719.0,1.6722926014376238
720.0,1.5486224664546042
721.0,1.493044083122871
722.0,1.2887167960591401
723.0,0.9470015034702269
724.0,0.7400132372035253
725.0,0.9885276335084276
726.0,0.7719294447681663
727.0,0.6923693434808149
728.0,0.6695870391031206
729.0,0.5070822886138432
730.0,0.24963889325769356
731.0,0.2097186915153314
732.0,0.6451861878254427
733.0,0.05626321992040416
734.0,0.016208781686693208
735.0,0.17215774436774908
736.0,0.05415091242774219
737.0,0.15124945593286826
738.0,0.35635243406852235
739.0,0.30557341181206954
740.0,0.09702254879068223
741.0,0.046993695411428615
742.0,0.04854533851033453
743.0,0.00018511169579692708
744.0,0.02089453768870074
745.0,0.05780024205627118
746.0,0.07774973808581384
747.0,0.14132316352089805
748.0,0.07072197183321663
749.0,0.10796501555195842
750.0,0.12883442534385717
751.0,0.6432838506622156
752.0,0.3615901753544966
753.0,0.5649203883497224
754.0,0.3769122684416999
755.0,0.06512349657972251
756.0,0.21554213450580592
757.0,0.23544428982891902
758.0,0.45427491297821426
759.0,0.6340153471462909
760.0,0.4297653128580056
761.0,0.4304734049291999
762.0,0.8596390487666449
763.0,0.9313664995764119
764.0,0.8976208771265143
765.0,1.149390161372228
766.0,1.4863716026322218
767.0,1.4535665207236654
768.0,1.1553036458634482
769.0,1.5191543234247682
770.0,1.8553365620930384
771.0,1.6111454437109534
772.0,1.5517934958951192
773.0,1.5182250444247851
774.0,1.2113545476754057
775.0,0.8994710756790486
776.0,0.6956571053407452
777.0,1.4132763205605787
778.0,1.2271627018989553
779.0,1.246339433099407
780.0,1.1120533024478791
781.0,0.7332856898463344
782.0,0.8206033077908873
783.0,1.1736577520911189
784.0,0.45001759626341553
785.0,1.051556106097387
786.0,1.006000333794166
787.0,0.23592099453895254
788.0,0.12585535569566259
789.0,0.5020920066980054
790.0,0.29365019346899734
791.0,0.6493480520229323
792.0,0.6164016451153078
793.0,0.885937361601429
794.0,0.7058555523281386
795.0,0.33933366520720043
796.0,0.2181351413857496
797.0,0.4667517947701866
798.0,0.7612617519029014
799.0,0.4468764449029629
800.0,0.13234372147314605
801.0,0.9554472414149995
802.0,0.7681247878814111
803.0,0.5399424439957707
804.0,0.277760931044969
805.0,0.0469832533505392
806.0,0.3794544542609478
807.0,0.013704261868010527
808.0,0.41438709036946486
809.0,0.5322108782298126
810.0,0.25746181182482575
811.0,0.10770210877174234
812.0,0.30603847999862993
813.0,0.3569289922678014
814.0,0.03138341847278249
815.0,0.18676123906460992
816.0,0.02733291044083596
817.0,0.30004826135066354
818.0,0.07961412162173612
819.0,0.14666677103480072
820.0,0.13568225639065207
821.0,0.10573464993958596
822.0,0.395946786781162
823.0,0.3341098733301789
824.0,0.02344225681054767
825.0,0.697276794166012
826.0,0.5459932264970733
827.0,0.37401960924248867
828.0,0.2833204068349884
829.0,0.21654403519461277
830.0,0.6436198205104864
831.0,0.6117494525620126
832.0,0.05700257267342023
833.0,1.4043238221960428
834.0,1.2737025593607203
835.0,0.32999804563598995
836.0,0.05651715874336881
837.0,0.17193633939672517
838.0,0.04096264065649103
839.0,0.29241105977295995
840.0,0.6869650018575704
841.0,0.1823938048406006
842.0,0.28951039978439397
843.0,0.6361756892832652
844.0,0.6513572086686913
845.0,0.5622632621699473
846.0,0.7330432698914193
847.0,0.7711857944174242
848.0,0.9215930391137926
849.0,0.45356336702490063
850.0,0.7077945487711336
851.0,0.8565708325719309
852.0,0.8057005739006163
853.0,0.7701142392262821
854.0,0.7601553821657936
855.0,0.7771967233009722
856.0,1.0230635964280947
857.0,0.7022647575177766
858.0,0.5026910704926948
859.0,0.6360593621985103
860.0,0.8040620580331431
861.0,1.2525278714361985
862.0,1.354341708175122
863.0,0.8727811272918747
864.0,1.2917090141112921
865.0,1.024096772227257
866.0,0.5198718419441669
867.0,1.0466965242560644
868.0,0.9402383264543833
869.0,0.6728675937141053
870.0,0.6596679411837993
871.0,0.7425080845831682
872.0,0.8523569692096361
873.0,0.6799998618260982
874.0,0.6713841092551401
875.0,1.0163428201580664
876.0,0.9833910379266949
877.0,0.7842277331818663
878.0,0.915983822861567
879.0,0.9855307730148379
880.0,0.7961933762405838
881.0,0.8376269135862233
882.0,0.9508473608058666
883.0,0.9157189008277966
884.0,0.7715678883272271
885.0,0.3045484644688359
886.0,0.8631633658500322
887.0,0.9448006435299796
888.0,0.7272473915167262
889.0,1.1270876896931714
890.0,0.5674084942432162
891.0,0.3512056151352034
892.0,1.0995231011376958
893.0,0.49130580757174697
894.0,0.6455785192104191
895.0,0.6477269065859396
896.0,0.7053242653594397
897.0,0.8346417761540643
898.0,0.6789156592253643
899.0,0.6623975700459853
900.0,1.1127997404316954
901.0,1.0457261319305369
902.0,1.197576470256812
903.0,1.5743562188309304
904.0,1.1011232503215025
905.0,0.9020595380804943
906.0,1.221626807630703
907.0,1.1985773442067398
908.0,0.9887466708871273
909.0,1.2830470774309175
910.0,1.3612223505286565
911.0,1.7900988187595395
912.0,1.3445030880065716
913.0,1.3762556630762974
914.0,1.5218241221471223
915.0,1.5195040696003264
916.0,1.7662120141653141
917.0,2.0953428547433863
918.0,2.3807413843199785
919.0,2.538055106764508
920.0,2.53967785761351
921.0,2.134474425118443
922.0,1.9315302408525277
923.0,1.789297575781995
924.0,1.7640019930382949
925.0,1.408294835808047
926.0,1.1773586545861163
927.0,1.7456862775148758
928.0,1.6768416649965827
929.0,1.4486665515240953
930.0,1.1035650454899468
931.0,0.9621201055003648
932.0,1.0072878472010676
933.0,0.983714798107272
934.0,1.0143222151318851
935.0,1.2777445024402394
936.0,1.5272404715624912
937.0,1.348159704367128
938.0,0.8705548409879234
939.0,0.7914911184832291
940.0,1.0584578012293184
941.0,0.9783530710937586
942.0,0.896470804177341
943.0,1.1441732793757247
944.0,1.0482825317837825
945.0,0.5892627499469814
946.0,0.4556676663312837
947.0,0.372193316863639
948.0,0.35408478533265997
949.0,0.590370842822249
950.0,0.6102188565468247
951.0,0.7106230301431758
952.0,0.5579983316673972
953.0,0.532452388279992
954.0,0.6428101991758363
955.0,0.37899848231647804
956.0,0.24273733301874412
957.0,0.8382033140924525
958.0,0.2654597025272945
959.0,0.3123301224269034
960.0,0.15628961715328277
961.0,0.06572426098814504
962.0,0.2743867440619199
963.0,0.016036951238294322
964.0,0.09279837869715675
965.0,0.04575095824800548
966.0,0.06341408597399385
967.0,0.26682278620689764
968.0,-0.0009365741650209187
969.0,0.10608133441135352
970.0,0.24312124752480688
971.0,0.3092933195132772
972.0,0.15592837906654117
973.0,0.13733033314967655
974.0,0.3463288440180741
975.0,0.1853311155240922
976.0,0.15546778427039082
977.0,0.20542012212097518
978.0,0.30257751336413646
979.0,0.6854649717178346
980.0,0.12344848808464014
981.0,0.25386056291140296
982.0,0.07031979945559536
983.0,0.2686324877351328
984.0,0.3276896342350474
985.0,0.16429369745193012
986.0,0.2986789720772018
987.0,0.3383313030102943
988.0,0.04091582498010998
989.0,0.492734931071078
990.0,0.2610709419782908
991.0,0.24007005018950758
992.0,0.5903525794939635
993.0,0.19326441780520043
994.0,0.6532715794766356
995.0,0.9122150884937157
996.0,1.025323244602186
997.0,1.3406761770361617
998.0,1.532423452612296
999.0,1.8644261788997891
1000.0,2.694681408518651
1001.0,3.6459107026268582
1002.0,4.771981567579949
1003.0,5.177864377170651
1004.0,6.326772978825774
1005.0,7.299579635684617
1006.0,8.648415740150375
1007.0,10.350818562539878
1008.0,11.757118952119894
1009.0,13.004655417473954
1010.0,14.262612836336311
1011.0,15.196990930667349
1012.0,15.978264386553048
1013.0,15.973328356784696
1014.0,16.541825193616525
1015.0,14.233360827221048
1016.0,12.738318113661323
1017.0,11.6534401721803
1018.0,10.628569937260112
1019.0,9.937063512239686
1020.0,8.689125779490176
1021.0,6.943854868298553
1022.0,6.21040326290493
1023.0,5.369074857676318
1024.0,5.161591279349714
1025.0,4.7001041081275075
1026.0,4.645993158180385
1027.0,4.436235803337193
1028.0,4.515881847651884
1029.0,4.653489579426598
1030.0,4.376824625697376
1031.0,4.308475340915731
1032.0,4.939018543630099
1033.0,5.501716660706835
1034.0,5.700471990161776
1035.0,5.74656554591176
1036.0,6.817962441681679
1037.0,6.93113331612652
1038.0,8.37666371101949
1039.0,9.011626382713
1040.0,9.652919238893382
1041.0,10.724699503623047
1042.0,12.002700582034128
1043.0,13.631926649470083
1044.0,15.632342683095207
1045.0,17.52686
1046.0,19.312006299210474
1047.0,21.96212918811632
1048.0,24.60285553475523
1049.0,28.272029184354064
1050.0,32.10205162933229
1051.0,35.922322106960415
1052.0,40.83458858200294
1053.0,46.279253692006215
1054.0,53.06392939524685
1055.0,61.84125008589659
1056.0,71.91186291671059
1057.0,83.03521656568034
1058.0,94.95401186072772
1059.0,105.45007646871294
1060.0,119.58426098054763
1061.0,137.5940637048187
1062.0,154.28067265918347
1063.0,171.1583996614575
1064.0,189.05502851941486
1065.0,205.26664508983123
1066.0,221.87850046174876
1067.0,235.40329958741813
1068.0,244.08062482355575
1069.0,246.55591078766085
1070.0,240.2337511613584
1071.0,231.08066195080602
1072.0,216.47589068208248
1073.0,196.44498525992788
1074.0,180.28685177421897
1075.0,161.6923564041967
1076.0,144.7186757591721
1077.0,128.0940918552848
1078.0,113.30229432254491
1079.0,102.0371335978997
1080.0,90.08559918624185
1081.0,78.33176896971729
1082.0,70.69128309085802
1083.0,64.94235639471033
1084.0,58.33776226167646
1085.0,51.952003790002166
1086.0,44.66661828165251
1087.0,40.78695746682405
1088.0,36.58988269209506
1089.0,32.70596618892805
1090.0,28.831439268729596
1091.0,25.822141614511363
1092.0,22.945734792799794
1093.0,20.472362326637192
1094.0,18.31031308885457
1095.0,16.681172952876285
1096.0,15.53350861418292
1097.0,13.900128164984347
1098.0,12.409560231635936
1099.0,10.480245129292019
1100.0,8.486651712985912
1101.0,6.941038792492758
1102.0,7.039402249420912
1103.0,7.2274561314990144
1104.0,6.033515479413797
1105.0,4.580564506234185
1106.0,3.993782920600471
1107.0,3.652789094763518
1108.0,3.32325635095665
1109.0,2.6335465648718506
1110.0,2.0903436355726024
1111.0,2.3702713244868434
1112.0,1.7447535629193611
1113.0,0.7471804774697434
1114.0,2.0727022571489035
1115.0,0.7745998016277218
1116.0,0.455982326801291
1117.0,1.0990278963075402
1118.0,1.1208520101440318
1119.0,1.1185253844368173
1120.0,0.665257947104597
1121.0,0.4145532397808123
1122.0,0.36985890162691365
1123.0,0.5813234050468591
1124.0,0.6967999146444745
1125.0,0.4442122383482567
1126.0,0.575752552142632
1127.0,0.5198327302445538
1128.0,0.6976845329236652
1129.0,0.8579539533616156
1130.0,0.872932339246153
1131.0,1.415023105054849
1132.0,0.7950850009747604
1133.0,1.4328362837639106
1134.0,2.1657369455216173
1135.0,1.711270155361843
1136.0,1.8454380776086052
1137.0,2.3518058875359285
1138.0,2.857678414760991
1139.0,3.216722365809452
1140.0,2.974504714568066
1141.0,2.7303171239639843
1142.0,2.968239221887325
1143.0,3.2174541331929616
1144.0,3.064532972415341
1145.0,2.915263712408993
1146.0,3.0228572954115815
1147.0,2.9824321819173494
1148.0,2.885159772874735
1149.0,2.3691435660238533
1150.0,2.2628380694630597
1151.0,1.966520657937294
1152.0,1.7875297224082327
1153.0,1.2072926563188469
1154.0,0.4670477677555219
1155.0,0.13253343459985426
1156.0,0.1334006310321419
1157.0,0.5061914476520004
1158.0,0.6266651106879104
1159.0,0.45958679034480515
1160.0,0.1631692583946074
1161.0,0.5514540853811211
1162.0,0.40904624795807415
1163.0,0.7614725346949449
1164.0,0.15592797018953053
1165.0,0.46984757683229594
1166.0,0.6628205754986638
1167.0,0.6405679470733766
1168.0,0.4503438443372834
1169.0,0.08144448040587723
1170.0,0.1274633173210872
1171.0,0.1680580170850929
1172.0,0.06016521801048692
1173.0,0.09350352248544197
1174.0,0.15126643541192203
1175.0,0.1693515941402506
1176.0,0.08920723358599475
1177.0,0.044926412238112876
1178.0,0.1921142910746144
1179.0,0.25252038315375486
1180.0,0.7371229252578229
1181.0,0.8875199221356016
1182.0,0.9716294828884968
1183.0,0.8538074563960512
1184.0,0.6792362612523655
1185.0,0.5944843662445346
1186.0,1.271529505518187
1187.0,1.095206560369604
1188.0,1.1094898389583496
1189.0,1.2026205696745984
1190.0,1.2088066681041825
1191.0,1.4619953002578265
1192.0,1.4843267610180773
1193.0,1.493502352492952
1194.0,1.6191231170941716
1195.0,0.9102671849336965
1196.0,1.5513506915321058
1197.0,1.2569382437032979
1198.0,1.0547675906586693
1199.0,1.1787064794524302
1200.0,1.352700366338153
1201.0,1.7510983544215408
1202.0,1.8167711419997254
1203.0,2.2761290851011635
1204.0,1.4573734197595427
1205.0,1.1252454647939651
1206.0,1.296143437691141
1207.0,1.468948834632306
1208.0,1.9903220872570508
1209.0,1.8048256354422412
1210.0,1.501032152741693
1211.0,1.4117125748319985
1212.0,1.07459789702226
1213.0,1.3053821107332944
1214.0,1.5061569467664129
1215.0,1.2725876295665803
1216.0,1.1741639476289432
1217.0,1.2192455410040224
1218.0,0.8904997467899327
1219.0,0.9711457609512909
1220.0,1.2881892069407184
1221.0,1.3521054864184467
1222.0,1.1036236627484246
1223.0,1.122300428767142
1224.0,1.112491250736208
1225.0,0.7105759271808454
1226.0,0.7785700541586043
1227.0,1.1056709182764213
1228.0,1.1725623914354244
1229.0,0.9617817763067662
1230.0,0.8729310688839312
1231.0,1.1016482415075437
1232.0,0.9399493650025382
1233.0,0.297168323963546
1234.0,0.21870645296296798
1235.0,0.7531545311163887
1236.0,0.7953635625904064
1237.0,0.7984858884443232
1238.0,1.0616824163555338
1239.0,0.9346831431322646
1240.0,1.010363088529809
1241.0,1.1679144518393796
1242.0,1.1687837274040849
1243.0,1.6141495248909068
1244.0,0.859321504222961
1245.0,1.0410507295627898
1246.0,0.8978069157049622
1247.0,0.9235314996201056
1248.0,0.8398221668584992
1249.0,0.7112091110450011
1250.0,0.5243249027912427
1251.0,0.520409885166697
1252.0,0.8628324132084703
1253.0,0.8293982946584445
1254.0,0.6252497383765133
1255.0,0.7034193684634341
1256.0,0.3750981604008416
1257.0,0.32595791626682735
1258.0,0.628679663127451
1259.0,0.23915767272514032
1260.0,0.40052178074436035
1261.0,0.6939787165552606
1262.0,0.9461293154673636
1263.0,0.35349647418086294
1264.0,0.17579978585033787
1265.0,0.31556739499360137
1266.0,0.41839105702703777
1267.0,0.6705943249733916
1268.0,0.6300467609021607
1269.0,0.31960152544823284
1270.0,0.6930246815099479
1271.0,0.656115395763333
1272.0,0.6097388038606503
1273.0,0.04902901013987075
1274.0,0.19886300441992738
1275.0,0.3763531490232507
1276.0,0.10451159492798559
1277.0,0.5855459337583878
1278.0,0.2477854372178647
1279.0,0.5438570147807652
1280.0,0.7412605438359159
1281.0,0.5317725742911134
1282.0,0.6091531041142677
1283.0,0.4433540488260451
1284.0,0.14619329064460038
1285.0,0.03620304049588072
1286.0,0.07667511654405923
1287.0,0.11913794905814329
1288.0,0.0
1289.0,0.0
1290.0,0.0
1291.0,0.0
1292.0,0.0
1293.0,0.0
1294.0,0.0
1295.0,0.0
1296.0,0.0
1297.0,0.0
1298.0,0.0
1299.0,0.0
1300.0,0.0
1301.0,0.0
1302.0,0.0
1303.0,0.0
1304.0,0.0
1305.0,0.0
1306.0,0.0
1307.0,0.0
1308.0,0.0
1309.0,0.0
1310.0,0.0
1311.0,0.0
1312.0,0.0
1313.0,0.0
1314.0,0.0
1315.0,0.0
1316.0,0.0
1317.0,0.0
1318.0,0.0
1319.0,0.0
1320.0,0.0
1321.0,0.0
1322.0,0.0
1323.0,0.0
1324.0,0.0
1325.0,0.0
1326.0,0.0
1327.0,0.0
1328.0,0.0
1329.0,0.0
1330.0,0.0
1331.0,0.0
1332.0,0.0
1333.0,0.0
1334.0,0.0
1335.0,0.0
1336.0,0.0
1337.0,0.0
1338.0,0.0
1339.0,0.0
1340.0,0.0
1341.0,0.0
1342.0,0.0
1343.0,0.0
1344.0,0.0
1345.0,0.0
1346.0,0.0
1347.0,0.0
1348.0,0.0
1349.0,0.0
1350.0,0.0
1351.0,0.0
1352.0,0.0
1353.0,0.0
1354.0,0.0
1355.0,0.0
1356.0,0.0
1357.0,0.0
1358.0,0.0
1359.0,0.0
1360.0,0.0
1361.0,0.0
1362.0,0.0
1363.0,0.0
1364.0,0.0
1365.0,0.0
1366.0,0.0
1367.0,0.0
1368.0,0.0
1369.0,0.0
1370.0,0.0
1371.0,0.0
1372.0,0.0
1373.0,0.0
1374.0,0.0
1375.0,0.0
1376.0,0.0
1377.0,0.0
1378.0,0.0
1379.0,0.0
1380.0,0.0
1381.0,0.0
1382.0,0.0
1383.0,0.0
1384.0,0.0
1385.0,0.0
1386.0,0.0
1387.0,0.0
1388.0,0.0
1389.0,0.0
1390.0,0.0
1391.0,0.0
1392.0,0.0
1393.0,0.0
1394.0,0.0
1395.0,0.0
1396.0,0.0
1397.0,0.0
1398.0,0.0
1399.0,0.0
1400.0,0.0
1401.0,0.0
1402.0,0.0
1403.0,0.0
1404.0,0.0
1405.0,0.0
1406.0,0.0
1407.0,0.0
1408.0,0.0
1409.0,0.0
1410.0,0.0
1411.0,0.0
1412.0,0.0
1413.0,0.0
1414.0,0.0
1415.0,0.0
1416.0,0.0
1417.0,0.0
1418.0,0.0
1419.0,0.0
1420.0,0.0
1421.0,0.0
1422.0,0.0
1423.0,0.0
1424.0,0.0
1425.0,0.0
1426.0,0.0
1427.0,0.0
1428.0,0.0
1429.0,0.0
1430.0,0.0
1431.0,0.0
1432.0,0.0
1433.0,0.0
1434.0,0.0
1435.0,0.0
1436.0,0.0
1437.0,0.0
1438.0,0.0
1439.0,0.0
1440.0,0.0
1441.0,0.0
1442.0,0.0
1443.0,0.0
1444.0,0.0
1445.0,0.0
1446.0,0.0
1447.0,0.0
1448.0,0.0
1449.0,0.0
1450.0,0.0
1451.0,0.0
1452.0,0.0
1453.0,0.0
1454.0,0.0
1455.0,0.0
1456.0,0.0
1457.0,0.0
1458.0,0.0
1459.0,0.0
1460.0,0.0
1461.0,0.0
1462.0,0.0
1463.0,0.0
1464.0,0.0
1465.0,0.0
1466.0,0.0
1467.0,0.0
1468.0,0.0
1469.0,0.0
1470.0,0.0
1471.0,0.0
1472.0,0.0
1473.0,0.0
1474.0,0.0
1475.0,0.0
1476.0,0.0
1477.0,0.0
1478.0,0.0
1479.0,0.0
1480.0,0.0
1481.0,0.0
1482.0,0.0
1483.0,0.0
1484.0,0.0
1485.0,0.0
1486.0,0.0
1487.0,0.0
1488.0,0.0
1489.0,0.0
1490.0,0.0
1491.0,0.0
1492.0,0.0
1493.0,0.0
1494.0,0.0
1495.0,0.0
1496.0,0.0
1497.0,0.0
1498.0,0.0
1499.0,0.0
1500.0,0.0
1501.0,0.0
1502.0,0.0
1503.0,0.0
1504.0,0.0
1505.0,0.0
1506.0,0.0
1507.0,0.0
1508.0,0.0
1509.0,0.0
1510.0,0.0
1511.0,0.0
1512.0,0.0
1513.0,0.0
1514.0,0.0
1515.0,0.0
1516.0,0.0
1517.0,0.0
1518.0,0.0
1519.0,0.0
1520.0,0.0
1521.0,0.0
1522.0,0.0
1523.0,0.0
1524.0,0.0
1525.0,0.0
1526.0,0.0
1527.0,0.0
1528.0,0.0
1529.0,0.0
1530.0,0.0
1531.0,0.0
1532.0,0.0
1533.0,0.0
1534.0,0.0
1535.0,0.0
1536.0,0.0
1537.0,0.0
1538.0,0.0
1539.0,0.0
1540.0,0.0
1541.0,0.0
1542.0,0.0
1543.0,0.0
1544.0,0.0
1545.0,0.0
1546.0,0.0
1547.0,0.0
1548.0,0.0
1549.0,0.0
1550.0,0.0
1551.0,0.0
1552.0,0.0
1553.0,0.0
1554.0,0.0
1555.0,0.0
1556.0,0.0
1557.0,0.0
1558.0,0.0
1559.0,0.0
1560.0,0.0
1561.0,0.0
1562.0,0.0
1563.0,0.0
1564.0,0.0
1565.0,0.0
1566.0,0.0
1567.0,0.0
1568.0,0.0
1569.0,0.0
1570.0,0.0
1571.0,0.0
1572.0,0.0
1573.0,0.0
1574.0,0.0
1575.0,0.0
1576.0,0.0
1577.0,0.0
1578.0,0.0
1579.0,0.0
1580.0,0.0
1581.0,0.0
1582.0,0.0
1583.0,0.0
1584.0,0.0
1585.0,0.0
1586.0,0.0
1587.0,0.0
1588.0,0.0
1589.0,0.0
1590.0,0.0
1591.0,0.0
1592.0,0.0
1593.0,0.0
1594.0,0.0
1595.0,0.0
1596.0,0.0
1597.0,0.0
1598.0,0.0
1599.0,0.0
