0.0,0.0
1.0,0.0
2.0,0.0
3.0,0.0
4.0,0.0
5.0,0.0
6.0,0.0
7.0,0.0
8.0,0.0
9.0,0.0
10.0,0.0
11.0,0.0
12.0,0.0
13.0,0.0
14.0,0.0
15.0,0.0
16.0,0.0
17.0,0.0
18.0,0.0
19.0,0.0
20.0,0.0
21.0,0.0
22.0,0.0
23.0,0.0
24.0,0.0
25.0,0.0
26.0,0.0
27.0,0.0
28.0,0.0
29.0,0.0
30.0,0.0
31.0,0.0
32.0,0.0
33.0,0.0
34.0,0.0
35.0,0.0
36.0,0.0
37.0,0.0
38.0,0.0
39.0,0.0
40.0,0.0
41.0,0.0
42.0,0.0
43.0,0.0
44.0,0.0
45.0,0.0
46.0,0.0
47.0,0.0
48.0,0.0
49.0,0.0
50.0,0.0
51.0,0.0
52.0,0.0
53.0,0.0
54.0,0.0
55.0,0.0
56.0,0.0
57.0,0.0
58.0,0.0
59.0,0.0
60.0,0.0
61.0,0.0
62.0,0.0
63.0,0.0
64.0,0.0
65.0,0.0
66.0,0.0
67.0,0.0
68.0,0.0
69.0,0.0
70.0,0.0
71.0,0.0
72.0,0.0
73.0,0.0
74.0,0.0
75.0,0.0
76.0,0.0
77.0,0.0
78.0,0.0
79.0,0.0
80.0,0.0
81.0,0.0
82.0,0.0
83.0,0.0
84.0,0.0
85.0,0.0
86.0,0.0
87.0,0.0
88.0,0.0
89.0,0.0
90.0,0.0
91.0,0.0
92.0,0.0
93.0,0.0
94.0,0.0
95.0,0.0
96.0,0.0
97.0,0.0
98.0,-0.8927821088075956
99.0,2.018465993455239
100.0,1.616157081474443
101.0,0.46989009673945226
102.0,0.1926632907116782
103.0,0.8268879068793937
104.0,3.1896856014363686
105.0,3.007637128676621
106.0,3.323337742276297
107.0,4.283618322138482
108.0,3.297639914891008
109.0,0.06798678951723196
110.0,0.1437201589760519
111.0,2.5010303830854683
112.0,2.0294997848416765
113.0,2.4202014130499414
114.0,5.4695990762963405
115.0,8.149633826446859
116.0,6.673269581341334
117.0,5.756458699513572
118.0,5.871284666005016
119.0,5.410507348344156
120.0,3.0358296718132984
121.0,3.673164945567984
122.0,4.763965387990916
123.0,5.428772909596597
124.0,5.3418879851009216
125.0,3.742782127028297
126.0,4.926632430657855
127.0,6.767176277523293
128.0,7.71855687004313
129.0,8.210337314870397
130.0,11.70019919493195
131.0,13.923382942269114
132.0,13.507975812631232
133.0,9.665167933257635
134.0,11.01437818276517
135.0,11.916279568195963
136.0,11.772820604914575
137.0,12.863024544340531
138.0,18.28695285242439
139.0,21.122106856227692
140.0,21.016322048854803
141.0,20.515897157967636
142.0,22.162797073864354
143.0,20.449949467463878
144.0,18.542289082052218
145.0,17.47778701320796
146.0,11.82086537478264
147.0,9.369075697759307
148.0,8.120875583974081
149.0,6.33704151465963
150.0,2.8879479109613153
151.0,2.147834440613242
152.0,2.3930216270344764
153.0,1.9757082321138288
154.0,-0.017250162441284043
155.0,0.6403806738368316
156.0,0.627169044320755
157.0,0.1796856876591551
158.0,0.23384553855124313
159.0,0.46340482132193883
160.0,0.1002062588742953
161.0,1.425408744074897
162.0,2.2095429405155333
163.0,0.976155967243149
164.0,3.253700408377738
165.0,3.0278311323522544
166.0,1.8497361542403712
167.0,2.0507610306473403
168.0,3.642664789876174
169.0,4.495847196203841
170.0,3.973099847131174
171.0,2.8701563419881224
172.0,3.1320664445806994
173.0,6.019656359510193
174.0,5.661666487995016
175.0,2.6379458498098414
176.0,2.9036446800813693
177.0,5.0895436169580455
178.0,5.091617709953564
179.0,4.618462764925824
180.0,5.862719073161568
181.0,7.4945802879393435
182.0,8.859088052528726
183.0,10.667802866032481
184.0,12.268451141155822
185.0,9.835430899391845
186.0,8.124095609204833
187.0,7.766156056312418
188.0,8.38078184094974
189.0,9.037996786775874
190.0,8.145088608093326
191.0,8.36797947463002
192.0,8.700131049772068
193.0,8.163998507962766
194.0,10.641483404729522
195.0,11.317346510284164
196.0,10.005391257829917
197.0,8.147216412816558
198.0,7.26812826846269
199.0,5.5465342707327885
200.0,5.7835278110516315
201.0,6.857916779976831
202.0,6.475469890981429
203.0,8.74639345617593
204.0,9.591797567249904
205.0,10.178683868630177
206.0,11.620293626265166
207.0,12.057152546344463
208.0,12.264433151062592
209.0,10.059157760309638
210.0,6.973848601257616
211.0,6.998999302598211
212.0,6.9120560042569466
213.0,6.45992852806161
214.0,5.807392310143836
215.0,5.418175441987352
216.0,6.097421000572096
217.0,5.119315733264571
218.0,6.050290628892724
219.0,7.463594329798061
220.0,6.174006624261095
221.0,6.995377005227934
222.0,6.98369177644019
223.0,6.188994936779711
224.0,5.675397899884729
225.0,6.721754100026065
226.0,7.445505444076629
227.0,7.029354833339527
228.0,5.810703331829325
229.0,5.098647522312533
230.0,7.93627461718733
231.0,9.792952488299452
232.0,8.461913002740062
233.0,5.848502491134768
234.0,7.935991889298711
235.0,7.073314797067767
236.0,9.602572368369708
237.0,13.97661603163149
238.0,14.957278346183154
239.0,13.696275342706691
240.0,10.842103632865374
241.0,8.835169077938321
242.0,8.859633964175211
243.0,9.610043480577856
244.0,8.639273356048847
245.0,8.335730591514828
246.0,9.401336391227987
247.0,11.023589661296171
248.0,11.55159842474188
249.0,12.06090265208224
250.0,13.972280204310357
251.0,16.188355393197465
252.0,14.57711831025555
253.0,13.50865061592929
254.0,10.465715120677588
255.0,5.908222124055139
256.0,2.4450283811907907
257.0,1.8225073964802783
258.0,0.8097955827744182
259.0,0.06222542591656992
260.0,0.11165032915086959
261.0,0.7620955271878316
262.0,0.12970023334507574
263.0,0.16361486672950334
264.0,0.3086795929567483
265.0,1.7790960206814639
266.0,0.9695578163198123
267.0,0.40616741564416065
268.0,0.22793373737311878
269.0,0.9447742982061385
270.0,1.177734027451118
271.0,2.005275234343136
272.0,1.029915944348192
273.0,1.109609628966497
274.0,2.7146044878713247
275.0,2.342210317509435
276.0,1.6836996316934831
277.0,3.3089315850371537
278.0,4.754611036488508
279.0,4.3445782037646605
280.0,6.460592929410286
281.0,4.985802178690433
282.0,4.243637078630903
283.0,4.425406864775502
284.0,3.6746864022858117
285.0,5.97171684576854
286.0,7.022002576919599
287.0,6.716221366541725
288.0,6.495496557219708
289.0,7.797138644564516
290.0,6.922356744182084
291.0,6.3067761601521655
292.0,6.592430598690636
293.0,7.202969631916983
294.0,7.010636053535589
295.0,7.748121362558889
296.0,6.987679132393708
297.0,6.45567041707409
298.0,8.263273322068999
299.0,9.125608913608366
300.0,9.118859675655463
301.0,9.041602232942793
302.0,9.343763255573094
303.0,10.131835655192283
304.0,11.872922223764094
305.0,12.50175742201775
306.0,13.798683561852874
307.0,17.07926253928343
308.0,21.853165543118166
309.0,19.3014388618078
310.0,20.86541841607596
311.0,25.322141721365302
312.0,29.80295775205843
313.0,36.29485490296803
314.0,40.17994609387433
315.0,48.03579229434838
316.0,57.77736294163285
317.0,65.43754542509271
318.0,75.80972851289626
319.0,87.73873678282807
320.0,101.35125852049563
321.0,112.3150065896052
322.0,113.88514906770443
323.0,102.7149378967998
324.0,80.51292339675621
325.0,56.994758454258566
326.0,38.30928456878136
327.0,25.07037006292335
328.0,17.092829599974156
329.0,12.525173941661436
330.0,9.538608902231855
331.0,7.183289099338158
332.0,5.431966034407741
333.0,2.959175832464745
334.0,1.9124622031687153
335.0,1.458880174325393
336.0,1.4480949832458547
337.0,3.4973151253890165
338.0,4.293736534123936
339.0,2.6505477864240423
340.0,0.41654495008356035
341.0,0.47389132059358346
342.0,0.3519031944033579
343.0,0.5108817664479294
344.0,0.5039729160773526
345.0,1.4116102549244225
346.0,0.9229364165801821
347.0,0.06885380159476615
348.0,0.2806688027555627
349.0,0.6036110144902569
350.0,0.6564103270831604
351.0,0.22523595806499802
352.0,0.5518201092416428
353.0,-0.010695385172926862
354.0,0.8640088901942051
355.0,1.7483142579067124
356.0,0.7426001299887166
357.0,2.550247036815166
358.0,3.4631446815974987
359.0,2.6285570348779292
360.0,1.2488364387677908
361.0,0.8872574400861049
362.0,1.805319389501173
363.0,0.09068610064005994
364.0,0.6051155218495418
365.0,0.5477888841851357
366.0,2.2217639849319317
367.0,2.587753884920891
368.0,2.249777727384685
369.0,2.5734756456154724
370.0,3.2827134517393985
371.0,3.706668961919954
372.0,4.0351545528687875
373.0,3.088437507795075
374.0,3.992139520538517
375.0,5.060412500412012
376.0,4.044522060675991
377.0,6.572762883705843
378.0,7.378878087948505
379.0,8.12369637552054
380.0,9.689932120034864
381.0,11.863966597162014
382.0,13.040955216954506
383.0,12.492767745158044
384.0,10.99124359420329
385.0,10.42061309771189
386.0,11.68733812663407
387.0,11.806367583042746
388.0,12.300380514385331
389.0,14.599201560741742
390.0,17.46259954121743
391.0,19.46367914343465
392.0,21.09305009997767
393.0,24.196196889607695
394.0,26.617578873976495
395.0,27.58962494589546
396.0,26.848293074523767
397.0,23.597510892684575
398.0,19.768140674535424
399.0,16.190413376190193
400.0,13.108862619416602
401.0,10.416253902348577
402.0,7.967137423899851
403.0,4.727941419501176
404.0,3.15851798648703
405.0,3.2980932450200195
406.0,3.9189051235815455
407.0,3.4366467971649075
408.0,1.9580300814368414
409.0,1.0310461102544788
410.0,0.2256985742989728
411.0,0.995058988582417
412.0,0.38942086008414417
413.0,1.014468747736408
414.0,1.9426801331953762
415.0,2.4945051694802234
416.0,2.5256242295157776
417.0,1.871551461370182
418.0,3.775928735930279
419.0,4.226002297561346
420.0,4.301366582878263
421.0,4.946017963492865
422.0,5.6912040095903995
423.0,2.248404720794989
424.0,1.7191635956128213
425.0,1.0712545751549132
426.0,1.0327108856419793
427.0,2.6933885758933678
428.0,2.1131700580279698
429.0,0.2602174446545103
430.0,0.08077539735962998
431.0,0.8700400308650398
432.0,2.007714665400561
433.0,3.552669431990946
434.0,4.369738277037262
435.0,4.378464102144967
436.0,5.556033632002574
437.0,7.372781132236474
438.0,8.04506603099441
439.0,8.181157941708173
440.0,11.301034323530306
441.0,11.814897566082147
442.0,12.43964305543846
443.0,16.07839553898539
444.0,15.980020535723023
445.0,18.232384337531773
446.0,18.92790643006163
447.0,17.443745009774748
448.0,15.020950909567686
449.0,12.742655511229865
450.0,10.450498002501575
451.0,7.260005925031456
452.0,5.164114354282364
453.0,3.777180716581787
454.0,2.023958510902145
455.0,5.303144242212458
456.0,5.1519898055384195
457.0,2.703844038234893
458.0,1.3762070829991453
459.0,3.088023440638431
460.0,3.0737704360456095
461.0,2.4475222158121372
462.0,1.8873653231794578
463.0,1.7624889195331044
464.0,1.8604894468237014
465.0,1.3802320819164484
466.0,0.22055457488141061
467.0,0.2783099963883158
468.0,0.32314175614754626
469.0,0.28608268190858116
470.0,1.9147702633337271
471.0,0.5004953238744384
472.0,0.8194752654156289
473.0,2.6732864998243215
474.0,2.8631713583777203
475.0,1.6114984711965874
476.0,1.9754305383049382
477.0,1.1870360926443264
478.0,1.7300725126326741
479.0,2.1254932659327124
480.0,2.0561527268317756
481.0,2.461071221524226
482.0,0.7112209931203765
483.0,2.0728223655017315
484.0,2.889053585762887
485.0,2.264623198453881
486.0,1.6088978420315547
487.0,1.820783819218218
488.0,1.962035296646534
489.0,2.4384130502400083
490.0,2.03044628996752
491.0,1.6706425064029753
492.0,2.9327785905355817
493.0,1.7759656001168247
494.0,1.9899189677621256
495.0,3.1398266508700288
496.0,4.119188988430146
497.0,3.843582579979478
498.0,2.3393195010649404
499.0,3.2949119973335224
500.0,4.518536285665451
501.0,3.734959245238239
502.0,3.9737636113407917
503.0,6.247560230240639
504.0,4.167988911341301
505.0,5.627755630879415
506.0,5.048133944488923
507.0,5.331835844754028
508.0,7.534792186141512
509.0,8.122750214748796
510.0,6.273514161235467
511.0,5.95020258809121
512.0,8.002771276132119
513.0,9.59813796082569
514.0,10.0975948503999
515.0,12.339669534881144
516.0,13.572202171017457
517.0,14.35201070214336
518.0,14.045677197461842
519.0,13.578208041756664
520.0,15.165148924593339
521.0,21.570460832375186
522.0,24.19251340668498
523.0,25.665713185767192
524.0,26.51544880181615
525.0,26.95509470430894
526.0,28.130112681666475
527.0,30.337465978426255
528.0,26.741252790007874
529.0,23.28692619531274
530.0,21.127817064977204
531.0,18.422533360841136
532.0,14.340035387253659
533.0,13.729567667409585
534.0,11.88348777283461
535.0,9.508865464150773
536.0,8.272007212862826
537.0,8.227882728702268
538.0,5.922826540538325
539.0,5.519832792149938
540.0,3.913607355702821
541.0,3.1596825286043444
542.0,3.72926079757972
543.0,3.430331594783643
544.0,0.7061663778098716
545.0,2.038841304742066
546.0,2.14267052787018
547.0,2.0539199115397038
548.0,1.8942884089800702
549.0,0.1623917777696225
550.0,1.4996908631289871
551.0,1.4222250408442405
552.0,0.09266297448039859
553.0,0.46559044237672964
554.0,0.01781035078979311
555.0,0.33628900505470866
556.0,0.5142380961339819
557.0,1.436729282950589
558.0,4.281278547505617
559.0,4.008067025673655
560.0,0.47648480911505164
561.0,0.2305711624646805
562.0,2.907203529178812
563.0,1.3573437646272322
564.0,0.2517826797285909
565.0,0.7888737647278994
566.0,0.8881076493396197
567.0,0.6689398277523433
568.0,0.34236025396235203
569.0,0.42016379994785347
570.0,0.7973278508135535
571.0,0.18324673327035973
572.0,0.8537139592879012
573.0,0.3278149310238494
574.0,0.2812746572801704
575.0,0.07842948976213748
576.0,0.41570778696653027
577.0,1.9406122933431549
578.0,3.048152114462246
579.0,1.4939814364823967
580.0,2.6037517244387045
581.0,4.739778400138377
582.0,5.3820781877598165
583.0,4.017950928557004
584.0,3.2207010960071676
585.0,6.217802858941529
586.0,6.707170447516327
587.0,5.924195363711881
588.0,6.00829553918304
589.0,5.73962874328777
590.0,4.695028570575236
591.0,4.655402469999421
592.0,4.826572346685765
593.0,5.5758921606335985
594.0,6.042637991584465
595.0,6.484033514608308
596.0,6.82808336964246
597.0,6.566016795560953
598.0,8.021843909469657
599.0,5.8272572930755455
600.0,5.1842028123028046
601.0,6.029311227562245
602.0,6.93119004704676
603.0,7.323588466839143
604.0,5.632712872282095
605.0,6.324672083168833
606.0,4.777320493525675
607.0,4.788994556664144
608.0,5.752510885072831
609.0,3.7211870408858245
610.0,2.2347044978571367
611.0,3.887804153736009
612.0,5.439416844117205
613.0,5.2128651310368905
614.0,4.3418647445074035
615.0,4.400977552544431
616.0,5.249535082421275
617.0,5.237263856760119
618.0,4.1820041793996365
619.0,5.2482697715228435
620.0,6.355255859849917
621.0,5.491477168170449
622.0,5.006429824055992
623.0,5.306107352330827
624.0,4.758573378012082
625.0,4.443465379602778
626.0,2.8248129973256004
627.0,1.0518066085563447
628.0,1.3529629845024507
629.0,0.16488999404197124
630.0,2.0720696714172973
631.0,1.9689883751141142
632.0,1.6164976411289493
633.0,2.5470312254248024
634.0,3.9140022994304444
635.0,3.5344064803360187
636.0,2.7055695382712983
637.0,2.3787256117441116
638.0,3.2346996620659203
639.0,3.5721329280740037
640.0,2.947799058468912
641.0,2.7550028042729173
642.0,3.0847323488756504
643.0,3.1077551551025686
644.0,2.9933200813545797
645.0,3.590101139232625
646.0,3.9900975949843107
647.0,2.819689625364722
648.0,1.8058432407778355
649.0,4.297740845378457
650.0,5.111199282236671
651.0,4.208656577178391
652.0,2.9711619393364073
653.0,2.531991992448853
654.0,3.3453794213587615
655.0,2.9629268350213698
656.0,1.7593594141592228
657.0,2.1321969010245363
658.0,3.2060058679875447
659.0,5.139644247934507
660.0,7.6095087946156195
661.0,7.4701838555688616
662.0,9.488251308575999
663.0,11.564087747067692
664.0,14.052651317969728
665.0,16.467431594845362
666.0,18.335521035617266
667.0,20.467633023472903
668.0,24.34575142324784
669.0,27.083530335805236
670.0,31.62699948826713
671.0,37.212503119480175
672.0,44.025182171766396
673.0,52.80865942258647
674.0,62.09285991636082
675.0,73.5732556681913
676.0,90.29847472013857
677.0,111.87295481558215
678.0,137.61921040244738
679.0,168.04579143914324
680.0,204.3557193288192
681.0,242.90370939814161
682.0,276.1444386557005
683.0,297.10503348513714
684.0,295.3220676372159
685.0,265.3948595386603
686.0,217.64954681478287
687.0,171.78613649226696
688.0,134.26992328289845
689.0,104.52520092775467
690.0,82.8837027272348
691.0,68.11096850813502
692.0,56.85204486321547
693.0,45.981735294991054
694.0,36.31036140465662
695.0,32.436512388796814
696.0,26.85271818559372
697.0,21.227790531565663
698.0,18.68070949953868
699.0,17.356359976363287
700.0,14.785049930090826
701.0,12.978666138804384
702.0,13.207764012882265
703.0,10.099203353373051
704.0,8.716981370727169
705.0,7.973893891260307
706.0,6.963483057933307
707.0,6.197745992753083
708.0,5.542996108645468
709.0,4.811526194652801
710.0,3.9143434120095106
711.0,4.4314314569973625
712.0,3.410310316273643
713.0,1.5642349827307047
714.0,1.5766809911760102
715.0,1.9156998254804427
716.0,0.04691921473841906
717.0,0.6536666117532522
718.0,0.6441410495393267
719.0,0.12334809886354364
720.0,0.7656194176582434
721.0,0.295873840970262
722.0,0.28507944264192114
723.0,0.11811747596985665
724.0,0.6923701613256313
725.0,0.09607733375778338
726.0,0.4240408479108891
727.0,0.4696904357381557
728.0,0.6327877893729414
729.0,0.2406789850450518
730.0,0.42084333704210486
731.0,1.5958143059679675
732.0,1.5716038950207616
733.0,0.3828989756061825
734.0,0.7525977941583313
735.0,0.8675031026924217
736.0,0.09914049268214244
737.0,0.11055750013188632
738.0,0.7459863989587984
739.0,0.7319476383218517
740.0,0.10422115560405813
741.0,0.3641321081102623
742.0,1.4851803439094204
743.0,1.6845563695160042
744.0,0.8891506540449513
745.0,0.4314002163760887
746.0,1.9676845820279432
747.0,3.6045119254751943
748.0,3.6816046593378102
749.0,2.5922068388018955
750.0,2.111193698252917
751.0,3.503040570531307
752.0,1.5721216485994418
753.0,0.3462269268431378
754.0,0.7528068779682118
755.0,1.8250414668478423
756.0,2.2859695649495655
757.0,2.2281264555008136
758.0,2.8094862997951404
759.0,2.839076785638648
760.0,2.5866747576742166
761.0,3.69228070035097
762.0,5.45787388966853
763.0,6.821593739385301
764.0,7.1196515778470735
765.0,6.843326664625705
766.0,7.881001884744092
767.0,7.889346971280089
768.0,8.465234463367779
769.0,8.512065344133813
770.0,7.903872520754222
771.0,7.496006127498828
772.0,7.415335784147987
773.0,6.1276260569237735
774.0,5.99495107099455
775.0,5.405356230365625
776.0,4.79925739999521
777.0,4.243325915655131
778.0,3.5722816414135363
779.0,3.682492601260786
780.0,4.640889824858147
781.0,3.0101745608920414
782.0,2.3233467453400882
783.0,3.0390389424173145
784.0,2.7394445825566405
785.0,1.4178091003243822
786.0,0.14588267507541486
787.0,0.2456679682872498
788.0,0.8754006612828753
789.0,0.9675721176153091
790.0,1.9803308480441855
791.0,3.8285350336766757
792.0,4.850545773348429
793.0,4.274841022668515
794.0,3.286724451658396
795.0,2.8955540021735513
796.0,2.0618148461478714
797.0,0.3102969923927699
798.0,0.6872250039150986
799.0,0.30839515641133053
800.0,1.0004154808748407
801.0,1.1685427995864115
802.0,0.8726348233817174
803.0,0.31357424745663826
804.0,0.27431953790586133
805.0,0.7101759441011052
806.0,2.3201987135496456
807.0,2.3566742646569567
808.0,0.6954490811480784
809.0,0.7559834576205047
810.0,2.1439768290042553
811.0,0.9904643037753191
812.0,1.79935382077981
813.0,0.16208147747024457
814.0,0.6025408529854985
815.0,1.1160554760200272
816.0,1.785589507688353
817.0,2.9918554949659675
818.0,3.4774854681130587
819.0,2.3609393817004034
820.0,2.2622276892774207
821.0,3.1595236316540225
822.0,3.4636779231854566
823.0,2.609469958979227
824.0,1.6607241787859612
825.0,0.9588111449799783
826.0,0.7433114515038917
827.0,1.104237360711526
828.0,1.1948694121585375
829.0,0.7844315345130722
830.0,0.4850654094022978
831.0,0.5175754036595644
832.0,0.7176658137178861
833.0,0.7011818392596972
834.0,0.038671681695831406
835.0,0.7273501175388908
836.0,0.2122897901069482
837.0,0.3948456000810845
838.0,1.0785361195096734
839.0,0.7930551839260301
840.0,0.6558666151113715
841.0,0.9879506387559028
842.0,1.4813048792369905
843.0,1.50737887139215
844.0,0.7549213509548828
845.0,1.0931622497964248
846.0,0.4446153775973013
847.0,1.2882149680744612
848.0,0.6074759369346805
849.0,0.583488883143693
850.0,0.6415300595336055
851.0,0.5394301924258121
852.0,1.3729444139264533
853.0,1.2190393152320846
854.0,0.35794957132126287
855.0,0.828107547953454
856.0,0.6895731866184289
857.0,0.5648027973764265
858.0,0.34454508763463454
859.0,0.4791287085430135
860.0,1.0373234723046687
861.0,0.25092379253924846
862.0,0.4504781252383183
863.0,0.13486898274039044
864.0,0.024194493562051365
865.0,1.0204351006480343
866.0,1.3225569891815598
867.0,1.866594608056305
868.0,2.332881078592544
869.0,0.7453570066808223
870.0,0.20384921400046518
871.0,0.8608886576490984
872.0,1.4833188572447802
873.0,1.7419561864564346
874.0,1.7216644906504646
875.0,1.2641564296411425
876.0,1.4386809718349125
877.0,1.633774096140818
878.0,0.46425681515608525
879.0,0.298532675788468
880.0,1.9085506883873862
881.0,1.505931896089953
882.0,0.9684045639190901
883.0,1.0595556192079245
884.0,0.809302639568583
885.0,1.9264060659579174
886.0,4.131337451993781
887.0,3.354243455416074
888.0,1.9087733260966502
889.0,1.661428070900516
890.0,1.0989431908571285
891.0,1.740660730521328
892.0,2.5257070317500654
893.0,2.980529731627941
894.0,2.562086529648801
895.0,1.7182185666575904
896.0,1.9389624280371545
897.0,2.174068670898605
898.0,3.4331798902733643
899.0,4.059781724051931
900.0,5.012400537518979
901.0,6.57007081080408
902.0,6.1218602687180335
903.0,4.592240927168641
904.0,4.928758630733668
905.0,7.250899975375908
906.0,9.537035471683998
907.0,10.674679039315471
908.0,12.989368210830719
909.0,13.251527153204224
910.0,12.709120582547362
911.0,13.887278254647867
912.0,15.834710372439329
913.0,17.13404932193213
914.0,17.86264989434781
915.0,18.417392273247618
916.0,20.1853937757892
917.0,20.275407255109105
918.0,19.78856313028067
919.0,19.40641006126044
920.0,16.849870396916213
921.0,14.831447745525008
922.0,13.695853464697699
923.0,11.155700754694317
924.0,9.841404620410518
925.0,9.254367338767308
926.0,8.034595793261563
927.0,6.965871644607338
928.0,6.7065021997495355
929.0,5.878662698433529
930.0,5.296734618445454
931.0,6.023919750650529
932.0,6.440185985758004
933.0,5.211239618653708
934.0,4.9610063136752425
935.0,5.071619075677878
936.0,4.023828897831168
937.0,4.0263084509916425
938.0,4.084835358900922
939.0,3.3275839865002768
940.0,2.643184612959966
941.0,2.4834824906850095
942.0,2.068481983884596
943.0,1.0396596446612558
944.0,0.015688529850145252
945.0,0.40031055074047467
946.0,1.2407669589589694
947.0,1.1997695855183639
948.0,0.8565702311527688
949.0,0.1616805062747048
950.0,0.41380136008776336
951.0,0.3434243523303449
952.0,0.29916556394576305
953.0,0.9155069447649345
954.0,0.44698386920505445
955.0,0.05918202837814272
956.0,1.1660060670683683
957.0,2.933090589043528
958.0,0.9783140073473707
959.0,0.055934494448183915
960.0,0.5945131680011254
961.0,0.5077494399180208
962.0,0.14636152366023625
963.0,0.6313926186687808
964.0,0.14636462045967097
965.0,1.0055229133316255
966.0,1.6825458817046959
967.0,0.17308046101768956
968.0,0.8232339614815474
969.0,0.286465931005559
970.0,0.10838306578418092
971.0,0.14333574151038045
972.0,0.8087888900942773
973.0,0.764260511416887
974.0,0.16243142222973492
975.0,0.46569653397846883
976.0,0.06579417418784766
977.0,0.21183773714977625
978.0,1.2240269992095305
979.0,0.34751020292655893
980.0,0.7894052696549573
981.0,1.1150843986366215
982.0,2.497765984157446
983.0,3.379747532043683
984.0,2.1579927790570554
985.0,2.4503389937040922
986.0,1.3608878725176947
987.0,1.5075175683682644
988.0,2.1884618826079536
989.0,3.6874346317615583
990.0,4.465729071460039
991.0,4.138353447595037
992.0,5.175334594577724
993.0,7.261383553901195
994.0,8.82663274553355
995.0,11.92328593565096
996.0,12.594756914423192
997.0,13.772182549072522
998.0,14.570479571272967
999.0,16.460572679193433
1000.0,18.481624939684856
1001.0,20.120819123581416
1002.0,22.263477360495326
1003.0,23.94440665464277
1004.0,26.08672248484067
1005.0,29.165370790462184
1006.0,30.59459796905604
1007.0,31.72306896792274
1008.0,32.828035202747586
1009.0,33.02454325810106
1010.0,30.922683698318426
1011.0,28.565600000000003
1012.0,28.5189882848135
1013.0,25.857605091098524
1014.0,22.295851824572328
1015.0,19.577941719657595
1016.0,17.17509675069963
1017.0,16.594305969482505
1018.0,14.654926817794415
1019.0,12.440190468435773
1020.0,9.965813676599423
1021.0,8.935238639754223
1022.0,7.500333145327313
1023.0,6.5540220436862215
1024.0,5.992301164507318
1025.0,5.757663020130214
1026.0,5.580637666916417
1027.0,4.959780169307342
1028.0,4.304720068782348
1029.0,5.315354191555031
1030.0,6.138918440547975
1031.0,5.477709286445661
1032.0,6.371422776599405
1033.0,5.091750123909533
1034.0,4.170850266064224
1035.0,4.232450488505365
1036.0,4.103574478648845
1037.0,5.380259839334841
1038.0,6.694927176868361
1039.0,6.892375439523386
1040.0,6.979856365615016
1041.0,5.875423508684647
1042.0,8.427854834510281
1043.0,8.887171680847219
1044.0,10.460168147946295
1045.0,13.14930543473476
1046.0,14.170731076935542
1047.0,15.647917346392733
1048.0,17.52323377610331
1049.0,20.477872290936006
1050.0,23.540606974518067
1051.0,25.66179253626926
1052.0,28.339737757092347
1053.0,33.23117792301832
1054.0,40.374579688574784
1055.0,48.01232421405924
1056.0,54.74789129004571
1057.0,63.42129820384061
1058.0,75.3173054166852
1059.0,88.45872163372319
1060.0,101.4754983446399
1061.0,116.33126145307621
1062.0,133.7789004322547
1063.0,150.86981503652447
1064.0,165.81915839259827
1065.0,178.38124104299303
1066.0,185.09127513239966
1067.0,185.62290756985996
1068.0,180.8578644277419
1069.0,171.4288814746606
1070.0,162.8784787147577
1071.0,142.52564553195845
1072.0,128.65350456893978
1073.0,113.70721996663713
1074.0,99.80491653745136
1075.0,88.92276517772235
1076.0,78.58951039064073
1077.0,69.27402365377753
1078.0,61.99807498352985
1079.0,55.289368443099896
1080.0,50.10625241313441
1081.0,46.03695172186872
1082.0,42.723776398821016
1083.0,40.186630816494535
1084.0,37.84676351831997
1085.0,35.6340756400296
1086.0,32.90837906870966
1087.0,29.857293310042834
1088.0,27.83530330468051
1089.0,25.3457970861306
1090.0,20.690906815859144
1091.0,16.13934810597993
1092.0,13.788444158159114
1093.0,12.560086693146678
1094.0,13.118993682970181
1095.0,13.047876131985205
1096.0,8.734501844913071
1097.0,5.97093789045471
1098.0,6.032108575979385
1099.0,5.308643497338062
1100.0,3.970632259871719
1101.0,3.9077467079253174
1102.0,3.593767006491045
1103.0,3.1616009443568958
1104.0,2.9128123365091123
1105.0,2.312018764903046
1106.0,2.3473883068721983
1107.0,1.3082445321113576
1108.0,2.84081430634107
1109.0,3.9204334517132042
1110.0,2.8704954709943586
1111.0,0.9220115492825576
1112.0,1.0117862773565942
1113.0,0.5941805924931102
1114.0,0.20157540938145777
1115.0,0.1716968650151905
1116.0,0.6318798512805726
1117.0,0.1920812278554087
1118.0,0.9862252188137243
1119.0,0.016763959710136632
1120.0,1.5602171144749308
1121.0,0.48877881701646964
1122.0,1.98816181217611
1123.0,0.4363395210090381
1124.0,0.20484185699937507
1125.0,0.459303713133526
1126.0,0.08192358195189214
1127.0,1.1204520947846657
1128.0,1.577977808375458
1129.0,1.5398718430556932
1130.0,1.2575059949031604
1131.0,0.34386115235468145
1132.0,0.8319520553108921
1133.0,1.6812071907155686
1134.0,1.7432138065927878
1135.0,1.9260713007507093
1136.0,1.7280485384424944
1137.0,1.8042378731747162
1138.0,1.9981218158198055
1139.0,2.8944807529059347
1140.0,2.8043708245423313
1141.0,1.740047133845656
1142.0,2.1459068276431443
1143.0,1.710944278350461
1144.0,1.86360088892541
1145.0,2.2869969261156564
1146.0,2.287178111161022
1147.0,2.281874917087835
1148.0,1.9606753150930596
1149.0,1.3373838588271323
1150.0,1.2500994306393975
1151.0,0.8926524661287211
1152.0,0.09215879284534939
1153.0,0.674072209251795
1154.0,0.3674061405844236
1155.0,0.026561102208241618
1156.0,0.07578039019858511
1157.0,0.28820282860278845
1158.0,0.4800861086542294
1159.0,0.9825953433823722
1160.0,0.6847595727903875
1161.0,0.17514202804973616
1162.0,0.2357055629145977
1163.0,0.7676540657209597
1164.0,0.430470764035562
1165.0,0.6364080617667685
1166.0,1.2408460261931729
1167.0,0.4348547907939361
1168.0,1.209651375808148
1169.0,2.5511045821796188
1170.0,1.5385021514826742
1171.0,0.37648233792535324
1172.0,1.332859329180895
1173.0,1.3257654690808802
1174.0,3.110875404708049
1175.0,2.2083197351559822
1176.0,1.3634635311249357
1177.0,1.9614025262082297
1178.0,1.427022231478102
1179.0,0.9054887886131177
1180.0,2.3226655787908808
1181.0,2.5640954301245245
1182.0,2.4098247996632534
1183.0,2.050392024617364
1184.0,0.7799572950912658
1185.0,0.8643800581110224
1186.0,2.7681695447287544
1187.0,3.75714317433525
1188.0,2.215516437304186
1189.0,2.3572589426085555
1190.0,3.0804420519872573
1191.0,3.0757943891559063
1192.0,2.504045225619899
1193.0,2.299166067143541
1194.0,2.438155224309975
1195.0,2.997888377380466
1196.0,3.562289693367087
1197.0,2.743622447582555
1198.0,2.12450458123443
1199.0,3.0065789990428287
1200.0,4.138026774971163
1201.0,3.487875061421067
1202.0,2.763062959180075
1203.0,3.085391551014041
1204.0,3.1403219740439328
1205.0,3.806654020438531
1206.0,3.1018473450382564
1207.0,2.281367783268592
1208.0,2.1748747273187665
1209.0,2.4737341917884343
1210.0,3.2567803923863905
1211.0,2.607815832214675
1212.0,2.4384198951654694
1213.0,3.5962332211456074
1214.0,3.568863074605519
1215.0,2.772571439601777
1216.0,3.0335827024661284
1217.0,3.439441722006994
1218.0,3.3148352649546493
1219.0,3.3116385694629136
1220.0,3.748123646153566
1221.0,4.202814885613123
1222.0,4.016154540072703
1223.0,4.571777999919762
1224.0,5.529741454167259
1225.0,5.713894367633569
1226.0,6.830431169953714
1227.0,7.700491939446532
1228.0,6.525421651326181
1229.0,4.164118108840968
1230.0,2.472560710509474
1231.0,2.6587350113912827
1232.0,2.387657532073994
1233.0,2.2335613814602864
1234.0,3.3679614626636103
1235.0,2.584521439592101
1236.0,2.7414147286276482
1237.0,3.900432143884108
1238.0,2.8583879469261486
1239.0,2.5884254849934023
1240.0,2.1146318031197
1241.0,2.9248609494128432
1242.0,2.971612540655571
1243.0,2.8171792146012753
1244.0,3.0203646575455565
1245.0,2.3853616778414906
1246.0,1.903697776237486
1247.0,2.193913884007048
1248.0,1.8550741587633472
1249.0,0.9981690821687135
1250.0,1.550439958262343
1251.0,1.7568126301811733
1252.0,1.382070318905929
1253.0,0.9910227978324465
1254.0,0.3105749730003417
1255.0,0.3735073700379653
1256.0,0.5870571189038153
1257.0,1.0531954939937362
1258.0,0.6214324132782016
1259.0,0.7186705928775401
1260.0,2.6855998086368027
1261.0,1.713682043089616
1262.0,0.9418553323654733
1263.0,1.134610420400088
1264.0,1.2614189538828173
1265.0,2.0784241899374467
1266.0,2.3089841496798753
1267.0,2.1052251774885673
1268.0,1.759324573313424
1269.0,0.9739652944826475
1270.0,1.1396301888987166
1271.0,0.4561966071269091
1272.0,0.12924253038846448
1273.0,0.4968137616883934
1274.0,0.9465619948050739
1275.0,1.5162246146348113
1276.0,1.2818601365174989
1277.0,0.7443920283605622
1278.0,0.5297479530940159
1279.0,0.092026571882244
1280.0,0.6543981151448733
1281.0,0.3421168435491765
1282.0,0.9977446214894641
1283.0,1.0138225696166636
1284.0,0.8101570159640442
1285.0,0.1571956662573051
1286.0,0.0
1287.0,0.0
1288.0,0.0
1289.0,0.0
1290.0,0.0
1291.0,0.0
1292.0,0.0
1293.0,0.0
1294.0,0.0
1295.0,0.0
1296.0,0.0
1297.0,0.0
1298.0,0.0
1299.0,0.0
1300.0,0.0
1301.0,0.0
1302.0,0.0
1303.0,0.0
1304.0,0.0
1305.0,0.0
1306.0,0.0
1307.0,0.0
1308.0,0.0
1309.0,0.0
1310.0,0.0
1311.0,0.0
1312.0,0.0
1313.0,0.0
1314.0,0.0
1315.0,0.0
1316.0,0.0
1317.0,0.0
1318.0,0.0
1319.0,0.0
1320.0,0.0
1321.0,0.0
1322.0,0.0
1323.0,0.0
1324.0,0.0
1325.0,0.0
1326.0,0.0
1327.0,0.0
1328.0,0.0
1329.0,0.0
1330.0,0.0
1331.0,0.0
1332.0,0.0
1333.0,0.0
1334.0,0.0
1335.0,0.0
1336.0,0.0
1337.0,0.0
1338.0,0.0
1339.0,0.0
1340.0,0.0
1341.0,0.0
1342.0,0.0
1343.0,0.0
1344.0,0.0
1345.0,0.0
1346.0,0.0
1347.0,0.0
1348.0,0.0
1349.0,0.0
1350.0,0.0
1351.0,0.0
1352.0,0.0
1353.0,0.0
1354.0,0.0
1355.0,0.0
1356.0,0.0
1357.0,0.0
1358.0,0.0
1359.0,0.0
1360.0,0.0
1361.0,0.0
1362.0,0.0
1363.0,0.0
1364.0,0.0
1365.0,0.0
1366.0,0.0
1367.0,0.0
1368.0,0.0
1369.0,0.0
1370.0,0.0
1371.0,0.0
1372.0,0.0
1373.0,0.0
1374.0,0.0
1375.0,0.0
1376.0,0.0
1377.0,0.0
1378.0,0.0
1379.0,0.0
1380.0,0.0
1381.0,0.0
1382.0,0.0
1383.0,0.0
1384.0,0.0
1385.0,0.0
1386.0,0.0
1387.0,0.0
1388.0,0.0
1389.0,0.0
1390.0,0.0
1391.0,0.0
1392.0,0.0
1393.0,0.0
1394.0,0.0
1395.0,0.0
1396.0,0.0
1397.0,0.0
1398.0,0.0
1399.0,0.0
1400.0,0.0
1401.0,0.0
1402.0,0.0
1403.0,0.0
1404.0,0.0
1405.0,0.0
1406.0,0.0
1407.0,0.0
1408.0,0.0
1409.0,0.0
1410.0,0.0
1411.0,0.0
1412.0,0.0
1413.0,0.0
1414.0,0.0
1415.0,0.0
1416.0,0.0
1417.0,0.0
1418.0,0.0
1419.0,0.0
1420.0,0.0
1421.0,0.0
1422.0,0.0
1423.0,0.0
1424.0,0.0
1425.0,0.0
1426.0,0.0
1427.0,0.0
1428.0,0.0
1429.0,0.0
1430.0,0.0
1431.0,0.0
1432.0,0.0
1433.0,0.0
1434.0,0.0
1435.0,0.0
1436.0,0.0
1437.0,0.0
1438.0,0.0
1439.0,0.0
1440.0,0.0
1441.0,0.0
1442.0,0.0
1443.0,0.0
1444.0,0.0
1445.0,0.0
1446.0,0.0
1447.0,0.0
1448.0,0.0
1449.0,0.0
1450.0,0.0
1451.0,0.0
1452.0,0.0
1453.0,0.0
1454.0,0.0
1455.0,0.0
1456.0,0.0
1457.0,0.0
1458.0,0.0
1459.0,0.0
1460.0,0.0
1461.0,0.0
1462.0,0.0
1463.0,0.0
1464.0,0.0
1465.0,0.0
1466.0,0.0
1467.0,0.0
1468.0,0.0
1469.0,0.0
1470.0,0.0
1471.0,0.0
1472.0,0.0
1473.0,0.0
1474.0,0.0
1475.0,0.0
1476.0,0.0
1477.0,0.0
1478.0,0.0
1479.0,0.0
1480.0,0.0
1481.0,0.0
1482.0,0.0
1483.0,0.0
1484.0,0.0
1485.0,0.0
1486.0,0.0
1487.0,0.0
1488.0,0.0
1489.0,0.0
1490.0,0.0
1491.0,0.0
1492.0,0.0
1493.0,0.0
1494.0,0.0
1495.0,0.0
1496.0,0.0
1497.0,0.0
1498.0,0.0
1499.0,0.0
1500.0,0.0
1501.0,0.0
1502.0,0.0
1503.0,0.0
1504.0,0.0
1505.0,0.0
1506.0,0.0
1507.0,0.0
1508.0,0.0
1509.0,0.0
1510.0,0.0
1511.0,0.0
1512.0,0.0
1513.0,0.0
1514.0,0.0
1515.0,0.0
1516.0,0.0
1517.0,0.0
1518.0,0.0
1519.0,0.0
1520.0,0.0
1521.0,0.0
1522.0,0.0
1523.0,0.0
1524.0,0.0
1525.0,0.0
1526.0,0.0
1527.0,0.0
1528.0,0.0
1529.0,0.0
1530.0,0.0
1531.0,0.0
1532.0,0.0
1533.0,0.0
1534.0,0.0
1535.0,0.0
1536.0,0.0
1537.0,0.0
1538.0,0.0
1539.0,0.0
1540.0,0.0
1541.0,0.0
1542.0,0.0
1543.0,0.0
1544.0,0.0
1545.0,0.0
1546.0,0.0
1547.0,0.0
1548.0,0.0
1549.0,0.0
1550.0,0.0
1551.0,0.0
1552.0,0.0
1553.0,0.0
1554.0,0.0
1555.0,0.0
1556.0,0.0
1557.0,0.0
1558.0,0.0
1559.0,0.0
1560.0,0.0
1561.0,0.0
1562.0,0.0
1563.0,0.0
1564.0,0.0
1565.0,0.0
1566.0,0.0
1567.0,0.0
1568.0,0.0
1569.0,0.0
1570.0,0.0
1571.0,0.0
1572.0,0.0
1573.0,0.0
1574.0,0.0
1575.0,0.0
1576.0,0.0
1577.0,0.0
1578.0,0.0
1579.0,0.0
1580.0,0.0
1581.0,0.0
1582.0,0.0
1583.0,0.0
1584.0,0.0
1585.0,0.0
1586.0,0.0
1587.0,0.0
1588.0,0.0
1589.0,0.0
1590.0,0.0
1591.0,0.0
1592.0,0.0
1593.0,0.0
1594.0,0.0
1595.0,0.0
1596.0,0.0
1597.0,0.0
1598.0,0.0
1599.0,0.0
