0.0,0.0
1.0,0.0
2.0,0.0
3.0,0.0
4.0,0.0
5.0,0.0
6.0,0.0
7.0,0.0
8.0,0.0
9.0,0.0
10.0,0.0
11.0,0.0
12.0,0.0
13.0,0.0
14.0,0.0
15.0,0.0
16.0,0.0
17.0,0.0
18.0,0.0
19.0,0.0
20.0,0.0
21.0,0.0
22.0,0.0
23.0,0.0
24.0,0.0
25.0,0.0
26.0,0.0
27.0,0.0
28.0,0.0
29.0,0.0
30.0,0.0
31.0,0.0
32.0,0.0
33.0,0.0
34.0,0.0
35.0,0.0
36.0,0.0
37.0,0.0
38.0,0.0
39.0,0.0
40.0,0.0
41.0,0.0
42.0,0.0
43.0,0.0
44.0,0.0
45.0,0.0
46.0,0.0
47.0,0.0
48.0,0.0
49.0,0.0
50.0,0.0
51.0,0.0
52.0,0.0
53.0,0.0
54.0,0.0
55.0,0.0
56.0,0.0
57.0,0.0
58.0,0.0
59.0,0.0
60.0,0.0
61.0,0.0
62.0,0.0
63.0,0.0
64.0,0.0
65.0,0.0
66.0,0.0
67.0,0.0
68.0,0.0
69.0,0.0
70.0,0.0
71.0,0.0
72.0,0.0
73.0,0.0
74.0,0.0
75.0,0.0
76.0,0.0
77.0,0.0
78.0,0.0
79.0,0.0
80.0,0.0
81.0,0.0
82.0,0.0
83.0,0.0
84.0,0.0
85.0,0.0
86.0,0.0
87.0,0.0
88.0,0.0
89.0,0.0
90.0,0.0
91.0,0.0
92.0,0.0
93.0,0.0
94.0,0.0
95.0,0.0
96.0,0.0
97.0,0.0
98.0,0.0
99.0,0.0
100.0,0.0
101.0,0.0
102.0,0.0
103.0,0.0
104.0,0.0
105.0,0.0
106.0,0.0
107.0,0.0
108.0,0.0
109.0,0.0
110.0,0.0
111.0,0.0
112.0,0.0
113.0,0.0
114.0,0.0
115.0,0.0
116.0,0.0
117.0,0.0
118.0,0.0
119.0,0.0
120.0,0.0
121.0,0.0
122.0,0.0
123.0,0.0
124.0,0.0
125.0,0.0
126.0,0.0
127.0,0.0
128.0,0.0
129.0,0.0
130.0,0.0
131.0,0.0
132.0,0.0
133.0,0.0
134.0,0.0
135.0,0.0
136.0,0.0
137.0,0.0
138.0,0.0
139.0,0.0
140.0,0.0
141.0,0.0
142.0,0.0
143.0,0.0
144.0,0.0
145.0,0.0
146.0,0.0
147.0,0.0
148.0,-7.405617852591436
149.0,0.5320571070650787
150.0,4.597251710818233
151.0,6.008699790180752
152.0,17.359039859798262
153.0,30.283543288953652
154.0,22.877222534430626
155.0,61.376729537814455
156.0,125.35472417214122
157.0,172.680162820529
158.0,182.66064965513527
159.0,244.87579008675453
160.0,273.2077210227966
161.0,247.5382552107801
162.0,190.6682647970473
163.0,177.80840637673464
164.0,139.61671358989287
165.0,109.46767159308459
166.0,99.53018445824425
167.0,96.85780916220344
168.0,147.8187717968969
169.0,160.79631406755428
170.0,154.10718388734017
171.0,180.398599311569
172.0,211.27246813874046
173.0,294.8095640118883
174.0,372.04204094618365
175.0,417.06157114115587
176.0,518.0474172894849
177.0,613.3864683754738
178.0,664.3346417738994
179.0,671.3511804770864
180.0,659.4418521562853
181.0,561.384912227129
182.0,427.58751974864987
183.0,307.39431952393056
184.0,235.94453908268653
185.0,246.20306876816895
186.0,193.6327660219293
187.0,147.7869603563232
188.0,162.67149921698748
189.0,124.47675448153703
190.0,163.8554084195915
191.0,180.21196392280646
192.0,146.9259093463653
193.0,142.0165076254131
194.0,114.66138271316841
195.0,117.29343363480308
196.0,139.4683998567218
197.0,137.6728902814612
198.0,97.03002828917845
199.0,97.04078231356573
200.0,99.0366381827559
201.0,79.19788437976811
202.0,88.61552441111493
203.0,125.58145224362111
204.0,127.83440375949822
205.0,97.71383689362469
206.0,86.90080121592466
207.0,119.44660151719549
208.0,150.92405482915734
209.0,175.65558626511168
210.0,207.03868667982442
211.0,273.6808133584804
212.0,310.5273400601185
213.0,369.06889913458696
214.0,453.1388804802015
215.0,504.93700509420347
216.0,587.0552430567878
217.0,690.8114308242945
218.0,810.5191783195994
219.0,939.8079120427316
220.0,1027.4531487128345
221.0,1070.2165279697858
222.0,1122.0119116619173
223.0,1177.2453109847818
224.0,1123.4414175029056
225.0,1031.352761772119
226.0,940.9587474229562
227.0,858.793046294107
228.0,782.0078509738445
229.0,754.6625505920302
230.0,726.8485180034733
231.0,685.0423690041363
232.0,633.1029154195147
233.0,591.929884512618
234.0,544.8031136468306
235.0,475.45733094482483
236.0,404.58982602830366
237.0,371.6780157785713
238.0,327.42097261055955
239.0,286.1764500588078
240.0,269.02719732096864
241.0,286.9582244020541
242.0,339.0001072299544
243.0,292.07817854905244
244.0,273.49202373465175
245.0,304.6626138833755
246.0,323.549136162822
247.0,360.16958084973754
248.0,385.7088043602156
249.0,363.0506757561578
250.0,295.51720927345525
251.0,291.2963452834674
252.0,260.1619581059158
253.0,196.37820333997126
254.0,130.17395413845497
255.0,102.63062671632403
256.0,61.532111787494465
257.0,44.99307217379206
258.0,26.908819376378045
259.0,2.92444699449756
260.0,30.25014294558429
261.0,7.641390448270634
262.0,4.73154754981075
263.0,20.20114979145204
264.0,32.72409946143583
265.0,89.64386510549664
266.0,72.18294125486759
267.0,37.93812124146009
268.0,31.44166681924379
269.0,2.867370329624426
270.0,6.53374038392278
271.0,4.345649365076774
272.0,2.691857310013193
273.0,37.649358302191935
274.0,33.83644493578705
275.0,31.54528585074191
276.0,38.34438188080956
277.0,44.43008444396893
278.0,31.048087554486695
279.0,28.473081044277368
280.0,4.880317580263714
281.0,12.25033175196836
282.0,1.3334394408211927
283.0,14.677806880741993
284.0,8.771980183499208
285.0,5.934402638509695
286.0,21.23392413133342
287.0,36.1911868071037
288.0,58.802524676191574
289.0,62.898368315022054
290.0,61.50742765960224
291.0,70.60785846426724
292.0,84.64827502026122
293.0,83.01357906340962
294.0,53.416907308920706
295.0,28.139944332273195
296.0,37.85312479311024
297.0,24.61842587430853
298.0,38.100439968273356
299.0,45.49766730852641
300.0,34.22108502163519
301.0,36.20924108188706
302.0,89.35951185369335
303.0,93.62354736231318
304.0,81.74072353172302
305.0,100.95205909589602
306.0,117.40709281264688
307.0,131.66301594285642
308.0,127.29766729512932
309.0,127.409956509472
310.0,159.10276890178565
311.0,171.96805378441977
312.0,171.54814449273073
313.0,211.49551372973414
314.0,283.06841503869316
315.0,316.89487079360805
316.0,412.6444119489063
317.0,463.0828333543278
318.0,498.3210999245058
319.0,563.484646116678
320.0,641.7903946991206
321.0,736.3414936762634
322.0,810.9725882017361
323.0,873.8491940003568
324.0,942.8918330124365
325.0,970.0185038556724
326.0,916.650721043816
327.0,787.465105930032
328.0,619.0980101819989
329.0,472.29822987046197
330.0,347.08955419090097
331.0,209.05942182784995
332.0,121.63780857718969
333.0,103.0047313238732
334.0,59.749913519419735
335.0,19.647898486348318
336.0,15.963372726131402
337.0,22.57263467334596
338.0,14.279809189210185
339.0,40.39931946515516
340.0,36.47029974810812
341.0,39.981710928674325
342.0,69.51931154778602
343.0,105.11482349398055
344.0,88.34510484281064
345.0,87.36015500137904
346.0,84.74659182288916
347.0,73.66598040604269
348.0,75.38528522403807
349.0,70.93429994840209
350.0,111.49392024278374
351.0,139.36900466418587
352.0,118.84691605997722
353.0,96.06470379669189
354.0,99.99904730598276
355.0,89.66168591399054
356.0,96.88826101286358
357.0,129.7140026860745
358.0,96.46261311363982
359.0,121.47014514616657
360.0,142.63478384287814
361.0,154.6054924857654
362.0,174.5380309563056
363.0,150.05797390221946
364.0,199.25139898340635
365.0,235.74274564885505
366.0,243.5922250739992
367.0,259.79765804719517
368.0,257.6822907454258
369.0,240.86854919245874
370.0,218.7993594389262
371.0,214.6374119964533
372.0,252.58768928396708
373.0,192.74736461209042
374.0,164.32264157499492
375.0,181.33106519888412
376.0,206.6967424407485
377.0,187.78696658998638
378.0,166.91074775202836
379.0,159.88579827060116
380.0,169.45919520769544
381.0,193.27387781353582
382.0,228.12774521226336
383.0,287.5664458049745
384.0,336.65335447726335
385.0,384.1169970665912
386.0,459.4829226335095
387.0,578.4498625246136
388.0,683.9523106478438
389.0,758.486646818521
390.0,837.6610640951344
391.0,955.6297083533609
392.0,1116.3116076951158
393.0,1193.7897058174756
394.0,1262.0035271343681
395.0,1324.7915977176335
396.0,1355.17485112273
397.0,1389.7630223665085
398.0,1472.8629729103545
399.0,1472.6317510703584
400.0,1368.4785300951476
401.0,1194.9669596730264
402.0,928.753864179028
403.0,809.2311334824817
404.0,679.2531038292908
405.0,519.8478202866459
406.0,404.84932023713526
407.0,360.1418009793173
408.0,317.4434122492569
409.0,295.5463463674805
410.0,291.6521172129548
411.0,284.06216905490373
412.0,273.029024995558
413.0,267.3489421503324
414.0,253.59858623092893
415.0,233.86862163297874
416.0,224.67541376598564
417.0,232.3385772696819
418.0,225.68037342580817
419.0,196.61703161511258
420.0,165.4038998993577
421.0,153.7938547266065
422.0,139.34458742879886
423.0,170.0717739446511
424.0,143.67542983728552
425.0,91.04342157196936
426.0,99.91106484877494
427.0,109.38165305866366
428.0,103.07997718036401
429.0,88.33316482558831
430.0,88.33405236319463
431.0,115.20940018198442
432.0,102.92504759969692
433.0,166.85184200636525
434.0,203.76523390226475
435.0,197.58154161315036
436.0,190.5687905835183
437.0,150.44751239748666
438.0,178.93427574148805
439.0,203.9482095645529
440.0,199.60305549828212
441.0,179.711766380604
442.0,141.0214555527643
443.0,140.1509047339206
444.0,122.46698980474793
445.0,79.6822614530368
446.0,37.601145441742126
447.0,38.72826650396838
448.0,19.161111306812064
449.0,4.433451102052087
450.0,9.750108738136364
451.0,4.195691562906105
452.0,29.166988125846096
453.0,20.67811385574059
454.0,7.058163518043655
455.0,12.757979034242567
456.0,4.487180472723462
457.0,44.46939466693757
458.0,18.038793068698716
459.0,11.263484677528819
460.0,12.225277789433177
461.0,0.3998628793953879
462.0,9.83914967207044
463.0,26.68129871736118
464.0,20.211207976491824
465.0,4.091946668246076
466.0,21.413373753754133
467.0,30.01219451923211
468.0,7.898881173194926
469.0,8.174468987521216
470.0,8.647094927255862
471.0,20.23649557695321
472.0,9.27890522744754
473.0,52.09050712567833
474.0,39.04477690046983
475.0,34.07684950962622
476.0,43.08091509834351
477.0,25.716615890595307
478.0,43.32145812120233
479.0,44.35941661493223
480.0,49.135174679306026
481.0,61.30922036361916
482.0,68.88914954678737
483.0,60.83095222876008
484.0,105.98776599350853
485.0,125.84298878598962
486.0,128.68613307030773
487.0,124.24941344559343
488.0,80.41936926620178
489.0,132.51275669193663
490.0,146.67101990193848
491.0,141.8561357532217
492.0,135.56721414574935
493.0,101.95467353231923
494.0,122.93841848095444
495.0,110.10742551764284
496.0,118.09072813186026
497.0,144.22208695147242
498.0,142.66174216933703
499.0,144.68485510930844
500.0,166.18034302338035
501.0,156.700027503199
502.0,146.9076173588076
503.0,176.49904999393942
504.0,225.56865171805788
505.0,218.10312221449846
506.0,239.34932403982907
507.0,278.1805594815782
508.0,301.5509873289908
509.0,303.9158815967558
510.0,352.2932603175301
511.0,363.1262333117673
512.0,380.2282987132293
513.0,437.92631713155646
514.0,511.73620140713507
515.0,507.205432849057
516.0,560.4203341240279
517.0,587.7219907883932
518.0,592.8697268182534
519.0,618.6725238238447
520.0,668.1963228849104
521.0,672.9060635229195
522.0,648.6855266068019
523.0,631.972626674226
524.0,623.9823581990361
525.0,582.0388603113096
526.0,490.48149221895903
527.0,455.53317626774816
528.0,453.5812513924359
529.0,426.9787491222913
530.0,403.5473700546808
531.0,345.4030811594672
532.0,305.1756949711868
533.0,267.67840280346326
534.0,230.0800869906364
535.0,190.71695568871215
536.0,150.2116944029786
537.0,103.98819518546571
538.0,71.1239356853612
539.0,66.62677077985036
540.0,52.14437401346937
541.0,1.795031323662625
542.0,34.7714385438502
543.0,43.92917815073309
544.0,26.194334670275214
545.0,8.292943093815394
546.0,3.0170297604860887
547.0,15.946715355830023
548.0,7.609223075362383
549.0,3.350540380279729
550.0,7.6670000189629794
551.0,6.594431385735234
552.0,20.396915655555347
553.0,3.782926258512079
554.0,27.1008009696923
555.0,13.168673861319354
556.0,3.555657401154103
557.0,35.07304548497044
558.0,54.093971476476085
559.0,21.488889480932784
560.0,15.696926852006252
561.0,33.21222150948582
562.0,40.84587358598713
563.0,20.37336473775857
564.0,56.02916555979305
565.0,32.31767038400054
566.0,50.38095576723891
567.0,60.14176592329512
568.0,18.690718891936577
569.0,69.49126548618267
570.0,29.872639326337275
571.0,57.26360996110376
572.0,61.89473060723227
573.0,34.466218024865974
574.0,54.3349659077029
575.0,27.21374189836105
576.0,54.76367233831562
577.0,57.912073667628704
578.0,51.95853599028095
579.0,58.121271043912095
580.0,39.55522313922495
581.0,5.46729824007687
582.0,40.96061695177433
583.0,39.11937292090515
584.0,1.2556642321257507
585.0,6.484309051135551
586.0,22.21856635809871
587.0,25.72008820987631
588.0,8.478113396168725
589.0,17.86044870427183
590.0,3.9750520312791346
591.0,24.97673321125629
592.0,10.707651689537393
593.0,15.113105998513888
594.0,2.1610792912687886
595.0,12.975254011426735
596.0,4.521842394094955
597.0,5.698458241033674
598.0,11.676939262260605
599.0,5.603482196344351
600.0,5.733107403562848
601.0,10.342444301671593
602.0,7.104204747082146
603.0,50.84006066216081
604.0,41.674833342555296
605.0,6.789393241030689
606.0,27.89469679135026
607.0,81.44301820190766
608.0,87.80957420975096
609.0,151.86436390689028
610.0,180.60246220970555
611.0,170.09158776164176
612.0,170.02803758509083
613.0,200.54872334330625
614.0,227.10185324927437
615.0,270.29253606170266
616.0,229.9834357379718
617.0,187.86126605241043
618.0,185.68594141059043
619.0,189.93818164172947
620.0,137.5798114255575
621.0,101.5907257783074
622.0,120.2233773960325
623.0,114.94460959463703
624.0,89.78950189514195
625.0,94.50827991491471
626.0,116.08122019611385
627.0,123.86745233365889
628.0,90.61859150916312
629.0,61.07294183009373
630.0,69.54453708937093
631.0,94.5194597069318
632.0,58.475255096391756
633.0,37.63211099355405
634.0,89.23090958365896
635.0,127.55922039601705
636.0,110.8891328909649
637.0,77.48581350105762
638.0,71.78749380087659
639.0,115.72361737510468
640.0,147.5022747805642
641.0,147.26195974859354
642.0,141.70001561852675
643.0,162.69508086441246
644.0,185.58926368796855
645.0,247.6639909783405
646.0,267.9128189905234
647.0,274.9040978994932
648.0,298.65896296279556
649.0,316.0809677646227
650.0,431.3929479483716
651.0,401.2124807936373
652.0,417.2179322878536
653.0,480.56477323578434
654.0,534.111504226667
655.0,620.7541715764671
656.0,658.2599659946459
657.0,736.5363222048354
658.0,797.4928881021082
659.0,890.3917931545584
660.0,1035.1873065336822
661.0,1145.6050275905104
662.0,1332.1385906321293
663.0,1529.07297337326
664.0,1737.4706808748188
665.0,1974.2206361649162
666.0,2241.3842598658184
667.0,2538.348706842281
668.0,2871.945249431243
669.0,3233.030647181541
670.0,3601.1716913229434
671.0,3884.594829328993
672.0,4081.1777868826875
673.0,4283.956771874303
674.0,4235.940890540124
675.0,4146.275001327604
676.0,3965.613845825949
677.0,3754.9905247172355
678.0,3610.1109278781664
679.0,3575.100419612469
680.0,3622.168679784951
681.0,3838.1943674006143
682.0,4109.676488824526
683.0,4430.985840940484
684.0,4823.694453785593
685.0,5227.088281769797
686.0,5533.891053457688
687.0,5607.829548002185
688.0,5441.193910732848
689.0,5016.016539746461
690.0,4338.419033101233
691.0,3535.2740653846918
692.0,2890.7416048836167
693.0,2332.1175992557073
694.0,1858.0915469544527
695.0,1540.6601598394968
696.0,1317.1334326809515
697.0,1070.2816090171066
698.0,923.9369533612922
699.0,721.4818449258992
700.0,654.0385541786944
701.0,599.7065696393911
702.0,492.9930254865118
703.0,406.97311039236166
704.0,412.26614758119655
705.0,337.3320644959092
706.0,321.82725644763093
707.0,284.4216850965838
708.0,255.945068778794
709.0,261.67980571355014
710.0,185.7965031941603
711.0,154.5289376504189
712.0,97.65329404765316
713.0,94.83060835427993
714.0,123.15428916868478
715.0,124.41595075378731
716.0,82.68634540395628
717.0,35.58908706290805
718.0,51.82370091936722
719.0,23.249488493617864
720.0,3.7821681126417706
721.0,10.338803622270017
722.0,29.96207512044075
723.0,13.32566644526723
724.0,20.42611920704906
725.0,24.339955214730743
726.0,10.22500873249964
727.0,8.983435105304867
728.0,11.90657282636643
729.0,0.7815173337932565
730.0,16.243936008646838
731.0,5.44151599684505
732.0,6.201125642894264
733.0,7.855390082664796
734.0,6.018971454899679
735.0,45.3317986657083
736.0,7.5018362378775025
737.0,23.089884073949406
738.0,29.188588303772914
739.0,38.45866375614296
740.0,49.067033623074686
741.0,40.067301617756264
742.0,81.54622577547568
743.0,36.22405324729523
744.0,24.86259041242063
745.0,29.031979095798707
746.0,47.574339366119275
747.0,76.54870087583161
748.0,70.95705460754321
749.0,42.88011260447785
750.0,41.39166431280655
751.0,46.8706322966165
752.0,25.473776839371357
753.0,2.5096571453079917
754.0,16.782556491614734
755.0,4.175818427088136
756.0,41.77568437394456
757.0,51.740792252035135
758.0,49.63884561489362
759.0,26.796200135092683
760.0,10.648240086339348
761.0,3.3012765373998487
762.0,13.762407977060775
763.0,6.501336834210616
764.0,12.21371189002191
765.0,14.78192646552593
766.0,11.883258945519215
767.0,21.119727970214115
768.0,24.150901069381167
769.0,37.29971482116363
770.0,68.32540272211101
771.0,57.89632705870986
772.0,13.134750767109574
773.0,11.386050740895714
774.0,41.942319643603966
775.0,36.62195778974881
776.0,36.32625460488327
777.0,62.339516007559496
778.0,72.95073953151869
779.0,37.52850415111097
780.0,-2.272973174219981
781.0,44.22627814922546
782.0,29.22293978098026
783.0,26.88720817546489
784.0,26.39600278033519
785.0,10.048706071606754
786.0,3.008152367438834
787.0,28.66613717635985
788.0,5.301439815804933
789.0,26.884275153534222
790.0,15.312220625327726
791.0,31.29886140173056
792.0,43.71452512439887
793.0,18.38444810720113
794.0,8.854616262534654
795.0,79.07326583136992
796.0,38.79433279092355
797.0,9.343680288356959
798.0,40.60172794508614
799.0,91.96291851819237
800.0,49.07509160023326
801.0,16.41888276310271
802.0,11.483471364325698
803.0,15.564431165444809
804.0,45.741840206522674
805.0,55.20114948978396
806.0,64.9856506227094
807.0,82.71102985721868
808.0,17.577494654850597
809.0,22.005080269947292
810.0,4.710299226775277
811.0,60.75391547092821
812.0,73.85547455046222
813.0,28.22053643823814
814.0,38.95759566482249
815.0,63.963028470291675
816.0,57.267983740033934
817.0,16.244782031297635
818.0,64.01936141875045
819.0,78.50058061470028
820.0,52.10928456007097
821.0,78.48871013732517
822.0,50.209261787519964
823.0,59.407435050047425
824.0,79.6211693435731
825.0,55.773229266855495
826.0,53.1192705286748
827.0,84.76061944373069
828.0,104.71723056930193
829.0,133.94118368024553
830.0,87.41154468215656
831.0,100.53482999157984
832.0,100.05922625240731
833.0,77.74601220159693
834.0,74.71287760415072
835.0,100.43304697472335
836.0,107.82139123503894
837.0,99.99199893289689
838.0,117.95730085626869
839.0,104.5735003343161
840.0,86.13272558019956
841.0,73.4064962905003
842.0,55.222253095256185
843.0,74.86918524400755
844.0,91.77956865674417
845.0,57.480459798887104
846.0,46.28891509053622
847.0,58.745686678421535
848.0,60.143029285725206
849.0,40.74136866249371
850.0,26.098397535516778
851.0,50.989786073963366
852.0,40.593015368738456
853.0,36.566621173469166
854.0,18.475832184315983
855.0,6.235031586375625
856.0,9.035997292527746
857.0,17.988096858562074
858.0,46.14782877609558
859.0,49.97777908107816
860.0,28.016970927642
861.0,48.65268516985532
862.0,59.228471829733564
863.0,40.97803478663851
864.0,52.273736873916434
865.0,28.991713450488845
866.0,1.8165079054544924
867.0,12.35568012838161
868.0,8.785583123918425
869.0,40.84413973179796
870.0,39.88035587453659
871.0,21.975534058312295
872.0,64.4794365966375
873.0,52.36455046042989
874.0,31.39540526099184
875.0,4.494413832217767
876.0,13.761401721071763
877.0,4.895167844254274
878.0,43.118521532798866
879.0,31.598800772384234
880.0,73.89758577956145
881.0,70.05521228047645
882.0,17.013098803450745
883.0,38.40375590696672
884.0,63.790833731332114
885.0,35.69389958968352
886.0,24.281596005086577
887.0,37.225877015821624
888.0,43.12927648710196
889.0,68.77374167598367
890.0,58.659130827721455
891.0,64.41757972981183
892.0,100.75591902165732
893.0,132.04885517313272
894.0,148.78542376863646
895.0,127.50503487684622
896.0,122.50217457933579
897.0,149.19995850934026
898.0,121.54495449981793
899.0,95.68295505074154
900.0,114.02403063135986
901.0,112.79711078823868
902.0,94.44635087482192
903.0,117.44682503528801
904.0,109.39956003361824
905.0,117.18188332815477
906.0,163.90561948488184
907.0,185.1759085579542
908.0,147.2959745090991
909.0,129.86580430111275
910.0,167.03930472286362
911.0,187.33554400153207
912.0,208.33276589859148
913.0,157.82755706279661
914.0,149.4343843979858
915.0,222.10513857953725
916.0,277.3218664069504
917.0,263.9785351243069
918.0,258.22959784773354
919.0,268.8423897044935
920.0,252.0703393292592
921.0,283.5642971975386
922.0,335.38761196430517
923.0,362.7714465230814
924.0,382.3420009424132
925.0,393.53734535836725
926.0,408.03478212111565
927.0,416.34299059131405
928.0,389.5595324779593
929.0,400.2281314385183
930.0,434.3837091375318
931.0,423.06412102197675
932.0,367.3884200561008
933.0,358.5382936432009
934.0,320.4196622541292
935.0,324.1645336748684
936.0,247.3626477781679
937.0,221.97392650901634
938.0,251.5710467524353
939.0,240.75074269386417
940.0,206.76718561633487
941.0,164.47641228896345
942.0,99.14456350818834
943.0,126.29582807707828
944.0,125.03896980140112
945.0,135.8810721697262
946.0,152.93715616237228
947.0,134.25382165847438
948.0,113.22957518338539
949.0,114.50582202753462
950.0,135.45451199776878
951.0,106.47831419473775
952.0,108.81196207151294
953.0,83.16465297336715
954.0,51.657102022659544
955.0,61.22885661862853
956.0,61.27805979144642
957.0,35.25787018989357
958.0,26.472188430734
959.0,27.441982274758104
960.0,38.650215669551116
961.0,29.25848852898092
962.0,15.701505647847242
963.0,12.392183510136737
964.0,13.580344206884687
965.0,75.59158953694997
966.0,14.544444053615608
967.0,44.2757598962785
968.0,29.3971500088633
969.0,19.72578539359786
970.0,37.635952565726235
971.0,57.058902726542165
972.0,46.70204987096154
973.0,24.630750755020063
974.0,1.7861196015220193
975.0,0.13439101859498412
976.0,5.225739070030518
977.0,10.434048119046158
978.0,31.138165399414124
979.0,29.912702483680853
980.0,11.030459481232453
981.0,7.473093964370485
982.0,23.93103923242631
983.0,16.723093758487
984.0,17.407654948105062
985.0,31.345178613356914
986.0,33.03832993706086
987.0,18.53541221270612
988.0,29.781182250833815
989.0,5.90583334032563
990.0,63.853507945323805
991.0,55.179704532474105
992.0,72.5693025755636
993.0,63.623559733559716
994.0,67.91131580067668
995.0,124.38926196822442
996.0,171.0757069695295
997.0,161.26948262959067
998.0,192.01396813112487
999.0,210.01268467528868
1000.0,203.75872015481477
1001.0,251.6340357474041
1002.0,361.364534931377
1003.0,346.9384553161174
1004.0,307.58797699547415
1005.0,374.49114882143874
1006.0,413.3364942097431
1007.0,375.45604015577186
1008.0,373.8136616183693
1009.0,417.7664489555978
1010.0,428.0094860862913
1011.0,418.1392982528315
1012.0,433.3399795535924
1013.0,431.2663551408944
1014.0,407.4560246216815
1015.0,477.0024512432987
1016.0,506.1715532410838
1017.0,485.23755856880274
1018.0,480.0355622657582
1019.0,477.1919987504291
1020.0,487.992337221836
1021.0,475.97143876909695
1022.0,474.2978845164285
1023.0,527.5313421274017
1024.0,534.1399340393754
1025.0,546.0105720115482
1026.0,504.55465733296
1027.0,525.7350837528147
1028.0,515.428226841785
1029.0,533.9894931342983
1030.0,504.68650063493556
1031.0,406.9054467658349
1032.0,357.9607412825051
1033.0,334.0918124632516
1034.0,326.30743179368415
1035.0,243.3711479314396
1036.0,247.81462925625598
1037.0,279.08871943684557
1038.0,273.78998006823826
1039.0,257.0109487711939
1040.0,255.5987868853326
1041.0,281.1223789055498
1042.0,363.4236169410549
1043.0,390.99629269698397
1044.0,385.8630022069385
1045.0,426.3895479963417
1046.0,526.6864268155408
1047.0,629.5779871284508
1048.0,726.4517406052641
1049.0,837.0917584148285
1050.0,963.6377602174085
1051.0,1108.1803093900053
1052.0,1294.749185786616
1053.0,1442.534738137912
1054.0,1612.8297726531553
1055.0,1837.3401630194728
1056.0,1950.1109930489731
1057.0,2114.729525840145
1058.0,2317.639656780564
1059.0,2413.684244108711
1060.0,2559.3458510411006
1061.0,2781.156078990043
1062.0,2962.324735696877
1063.0,3003.030794215414
1064.0,3132.2126011486316
1065.0,3280.0049575482003
1066.0,3337.2634872317635
1067.0,3365.801010988785
1068.0,3394.6675375593636
1069.0,3407.0891522962334
1070.0,3512.687921588617
1071.0,3134.460807380092
1072.0,3085.468039287716
1073.0,2903.1869086730735
1074.0,2586.5442097834484
1075.0,2415.2126896307486
1076.0,2275.756703650504
1077.0,2024.743427054359
1078.0,1787.9172995853457
1079.0,1648.4505789649859
1080.0,1413.7106114023886
1081.0,1230.2750835852746
1082.0,1155.6858893835913
1083.0,983.2348077929071
1084.0,901.3416824738435
1085.0,784.205875010556
1086.0,710.6561770056911
1087.0,725.7034034208768
1088.0,620.9150891459208
1089.0,517.0454737508941
1090.0,524.0077338330007
1091.0,464.9301254824773
1092.0,423.6987786246982
1093.0,365.2800618804195
1094.0,324.9032613151881
1095.0,295.45970560596135
1096.0,283.81286922595484
1097.0,277.62477517836754
1098.0,237.1228401235414
1099.0,241.6875105617142
1100.0,267.85927248079764
1101.0,246.7973706346074
1102.0,193.59560824226722
1103.0,170.68091159399026
1104.0,144.87046053975962
1105.0,157.22227052639175
1106.0,158.04586445291523
1107.0,92.95826313890532
1108.0,60.98196212957105
1109.0,91.70893188148773
1110.0,143.3689807923678
1111.0,120.34612164696776
1112.0,120.27593719359977
1113.0,136.59386145914894
1114.0,136.7346202839063
1115.0,121.35872497775307
1116.0,127.35811020287818
1117.0,142.1788882580595
1118.0,107.107053319414
1119.0,62.57362322688137
1120.0,89.68517436067235
1121.0,129.9414828891324
1122.0,176.07116214234173
1123.0,151.02842587966637
1124.0,145.26958221443053
1125.0,160.76219456921888
1126.0,168.4614882561798
1127.0,178.61741310622787
1128.0,196.39716909168055
1129.0,207.51341393382185
1130.0,261.6337408218791
1131.0,248.65651526588726
1132.0,243.3751008039639
1133.0,215.42994835974338
1134.0,190.29821473751832
1135.0,195.55732574026277
1136.0,191.90441928156332
1137.0,143.98176841497803
1138.0,114.33526918756564
1139.0,153.42379302417964
1140.0,94.99003001700947
1141.0,54.2571691598045
1142.0,70.87431913661179
1143.0,69.59653704492428
1144.0,80.49973271003955
1145.0,58.457385636224174
1146.0,48.929234207096485
1147.0,29.033018693427433
1148.0,4.528892535290384
1149.0,1.721274237473224
1150.0,10.507329662440547
1151.0,19.162058850546398
1152.0,40.10542464922716
1153.0,10.288871996594999
1154.0,24.241074189662307
1155.0,47.14844491031768
1156.0,46.44345749835942
1157.0,6.404822253760662
1158.0,28.51414091581755
1159.0,5.384518667121289
1160.0,20.160379427023674
1161.0,46.13376133920335
1162.0,28.285535709038214
1163.0,29.76865366850825
1164.0,6.678393144664396
1165.0,53.21659235396792
1166.0,42.07470437750494
1167.0,26.420057433722814
1168.0,19.8963956492478
1169.0,33.24441007515426
1170.0,11.941054422716451
1171.0,69.02742997270019
1172.0,30.53200050849133
1173.0,39.83077553741698
1174.0,39.138224558691704
1175.0,24.55453658710574
1176.0,11.944445049012522
1177.0,15.895697112806033
1178.0,33.06867465620633
1179.0,72.79345620274698
1180.0,85.26942201907751
1181.0,72.63697526589122
1182.0,56.03443316833275
1183.0,78.29646911387097
1184.0,67.45179972755136
1185.0,73.69727924866594
1186.0,78.9966736258236
1187.0,119.14790000000002
1188.0,140.98257907700017
1189.0,80.90699140041816
1190.0,39.9305397586513
1191.0,48.19268030366385
1192.0,54.74144931379409
1193.0,60.54256782282345
1194.0,68.05462429527238
1195.0,35.398061880765326
1196.0,96.9296889291781
1197.0,93.4374489037524
1198.0,101.79686050696763
1199.0,86.49504979590743
1200.0,71.01454341879011
1201.0,90.92273127581419
1202.0,101.4935240284643
1203.0,82.35047228229426
1204.0,86.82076799140522
1205.0,126.68495884832967
1206.0,133.62536503808784
1207.0,103.7466158895278
1208.0,77.55520520127104
1209.0,113.86818157217105
1210.0,143.85088121914322
1211.0,128.00768132359886
1212.0,148.6386212799713
1213.0,160.15988823393562
1214.0,178.83197270871034
1215.0,171.499069924188
1216.0,153.11245445183576
1217.0,157.02742678408444
1218.0,147.678302276081
1219.0,127.90156377858071
1220.0,107.91301646715951
1221.0,116.80194267458637
1222.0,91.19216285831055
1223.0,52.480986732260426
1224.0,91.49221889793775
1225.0,97.64500402187899
1226.0,71.78354329572102
1227.0,72.24813505934945
1228.0,65.8739468137342
1229.0,26.900655866969483
1230.0,26.80170843875886
1231.0,93.70430441446767
1232.0,58.03476732682417
1233.0,89.41298962449994
1234.0,103.46971820208803
1235.0,59.414262876265724
1236.0,69.58301829566248
1237.0,72.96163461812512
1238.0,110.93876515468814
1239.0,110.15399633448264
1240.0,110.22863929463455
1241.0,100.65893482250033
1242.0,59.051286651126105
1243.0,55.54325908089945
1244.0,74.05132745328291
1245.0,67.13993723850814
1246.0,111.17877939814447
1247.0,68.33805504449043
1248.0,68.1462344630242
1249.0,99.44557202546248
1250.0,117.44828556459609
1251.0,56.77032654249777
1252.0,56.205783122544105
1253.0,102.41089763273165
1254.0,91.35457469972575
1255.0,53.5443131197508
1256.0,68.1407778501892
1257.0,101.5887590495709
1258.0,99.4662216805504
1259.0,62.21034702377076
1260.0,102.67521012419668
1261.0,64.73070855785068
1262.0,59.05582672160109
1263.0,58.837023020961716
1264.0,29.260494629601585
1265.0,11.458295833402087
1266.0,27.42584213830017
1267.0,10.246335233099892
1268.0,25.534912519292448
1269.0,37.8299465714593
1270.0,69.74286351847854
1271.0,32.41232131772785
1272.0,31.699544252462285
1273.0,36.46264789399893
1274.0,35.157929536908284
1275.0,35.06951056995289
1276.0,29.395234453022447
1277.0,36.71955987862943
1278.0,94.9788148671822
1279.0,68.438493846882
1280.0,57.45067788249373
1281.0,49.74740974798489
1282.0,58.21495184135995
1283.0,64.58740346195022
1284.0,3.5318170618595413
1285.0,30.06833595953346
1286.0,64.20343220185816
1287.0,56.267297877965525
1288.0,44.00237769451411
1289.0,23.952158920082283
1290.0,88.07087171619733
1291.0,68.08564073160613
1292.0,54.950312644738055
1293.0,55.43073262901413
1294.0,27.582740301153017
1295.0,10.975842720081463
1296.0,6.480440237585879
1297.0,0.0
1298.0,0.0
1299.0,0.0
1300.0,0.0
1301.0,0.0
1302.0,0.0
1303.0,0.0
1304.0,0.0
1305.0,0.0
1306.0,0.0
1307.0,0.0
1308.0,0.0
1309.0,0.0
1310.0,0.0
1311.0,0.0
1312.0,0.0
1313.0,0.0
1314.0,0.0
1315.0,0.0
1316.0,0.0
1317.0,0.0
1318.0,0.0
1319.0,0.0
1320.0,0.0
1321.0,0.0
1322.0,0.0
1323.0,0.0
1324.0,0.0
1325.0,0.0
1326.0,0.0
1327.0,0.0
1328.0,0.0
1329.0,0.0
1330.0,0.0
1331.0,0.0
1332.0,0.0
1333.0,0.0
1334.0,0.0
1335.0,0.0
1336.0,0.0
1337.0,0.0
1338.0,0.0
1339.0,0.0
1340.0,0.0
1341.0,0.0
1342.0,0.0
1343.0,0.0
1344.0,0.0
1345.0,0.0
1346.0,0.0
1347.0,0.0
1348.0,0.0
1349.0,0.0
1350.0,0.0
1351.0,0.0
1352.0,0.0
1353.0,0.0
1354.0,0.0
1355.0,0.0
1356.0,0.0
1357.0,0.0
1358.0,0.0
1359.0,0.0
1360.0,0.0
1361.0,0.0
1362.0,0.0
1363.0,0.0
1364.0,0.0
1365.0,0.0
1366.0,0.0
1367.0,0.0
1368.0,0.0
1369.0,0.0
1370.0,0.0
1371.0,0.0
1372.0,0.0
1373.0,0.0
1374.0,0.0
1375.0,0.0
1376.0,0.0
1377.0,0.0
1378.0,0.0
1379.0,0.0
1380.0,0.0
1381.0,0.0
1382.0,0.0
1383.0,0.0
1384.0,0.0
1385.0,0.0
1386.0,0.0
1387.0,0.0
1388.0,0.0
1389.0,0.0
1390.0,0.0
1391.0,0.0
1392.0,0.0
1393.0,0.0
1394.0,0.0
1395.0,0.0
1396.0,0.0
1397.0,0.0
1398.0,0.0
1399.0,0.0
1400.0,0.0
1401.0,0.0
1402.0,0.0
1403.0,0.0
1404.0,0.0
1405.0,0.0
1406.0,0.0
1407.0,0.0
1408.0,0.0
1409.0,0.0
1410.0,0.0
1411.0,0.0
1412.0,0.0
1413.0,0.0
1414.0,0.0
1415.0,0.0
1416.0,0.0
1417.0,0.0
1418.0,0.0
1419.0,0.0
1420.0,0.0
1421.0,0.0
1422.0,0.0
1423.0,0.0
1424.0,0.0
1425.0,0.0
1426.0,0.0
1427.0,0.0
1428.0,0.0
1429.0,0.0
1430.0,0.0
1431.0,0.0
1432.0,0.0
1433.0,0.0
1434.0,0.0
1435.0,0.0
1436.0,0.0
1437.0,0.0
1438.0,0.0
1439.0,0.0
1440.0,0.0
1441.0,0.0
1442.0,0.0
1443.0,0.0
1444.0,0.0
1445.0,0.0
1446.0,0.0
1447.0,0.0
1448.0,0.0
1449.0,0.0
1450.0,0.0
1451.0,0.0
1452.0,0.0
1453.0,0.0
1454.0,0.0
1455.0,0.0
1456.0,0.0
1457.0,0.0
1458.0,0.0
1459.0,0.0
1460.0,0.0
1461.0,0.0
1462.0,0.0
1463.0,0.0
1464.0,0.0
1465.0,0.0
1466.0,0.0
1467.0,0.0
1468.0,0.0
1469.0,0.0
1470.0,0.0
1471.0,0.0
1472.0,0.0
1473.0,0.0
1474.0,0.0
1475.0,0.0
1476.0,0.0
1477.0,0.0
1478.0,0.0
1479.0,0.0
1480.0,0.0
1481.0,0.0
1482.0,0.0
1483.0,0.0
1484.0,0.0
1485.0,0.0
1486.0,0.0
1487.0,0.0
1488.0,0.0
1489.0,0.0
1490.0,0.0
1491.0,0.0
1492.0,0.0
1493.0,0.0
1494.0,0.0
1495.0,0.0
1496.0,0.0
1497.0,0.0
1498.0,0.0
1499.0,0.0
1500.0,0.0
1501.0,0.0
1502.0,0.0
1503.0,0.0
1504.0,0.0
1505.0,0.0
1506.0,0.0
1507.0,0.0
1508.0,0.0
1509.0,0.0
1510.0,0.0
1511.0,0.0
1512.0,0.0
1513.0,0.0
1514.0,0.0
1515.0,0.0
1516.0,0.0
1517.0,0.0
1518.0,0.0
1519.0,0.0
1520.0,0.0
1521.0,0.0
1522.0,0.0
1523.0,0.0
1524.0,0.0
1525.0,0.0
1526.0,0.0
1527.0,0.0
1528.0,0.0
1529.0,0.0
1530.0,0.0
1531.0,0.0
1532.0,0.0
1533.0,0.0
1534.0,0.0
1535.0,0.0
1536.0,0.0
1537.0,0.0
1538.0,0.0
1539.0,0.0
1540.0,0.0
1541.0,0.0
1542.0,0.0
1543.0,0.0
1544.0,0.0
1545.0,0.0
1546.0,0.0
1547.0,0.0
1548.0,0.0
1549.0,0.0
1550.0,0.0
1551.0,0.0
1552.0,0.0
1553.0,0.0
1554.0,0.0
1555.0,0.0
1556.0,0.0
1557.0,0.0
1558.0,0.0
1559.0,0.0
1560.0,0.0
1561.0,0.0
1562.0,0.0
1563.0,0.0
1564.0,0.0
1565.0,0.0
1566.0,0.0
1567.0,0.0
1568.0,0.0
1569.0,0.0
1570.0,0.0
1571.0,0.0
1572.0,0.0
1573.0,0.0
1574.0,0.0
1575.0,0.0
1576.0,0.0
1577.0,0.0
1578.0,0.0
1579.0,0.0
1580.0,0.0
1581.0,0.0
1582.0,0.0
1583.0,0.0
1584.0,0.0
1585.0,0.0
1586.0,0.0
1587.0,0.0
1588.0,0.0
1589.0,0.0
1590.0,0.0
1591.0,0.0
1592.0,0.0
1593.0,0.0
1594.0,0.0
1595.0,0.0
1596.0,0.0
1597.0,0.0
1598.0,0.0
1599.0,0.0
