0.0,0.0
1.0,0.0
2.0,0.0
3.0,0.0
4.0,0.0
5.0,0.0
6.0,0.0
7.0,0.0
8.0,0.0
9.0,0.0
10.0,0.0
11.0,0.0
12.0,0.0
13.0,0.0
14.0,0.0
15.0,0.0
16.0,0.0
17.0,0.0
18.0,0.0
19.0,0.0
20.0,0.0
21.0,0.0
22.0,0.0
23.0,0.0
24.0,0.0
25.0,0.0
26.0,0.0
27.0,0.0
28.0,0.0
29.0,0.0
30.0,0.0
31.0,0.0
32.0,0.0
33.0,0.0
34.0,0.0
35.0,0.0
36.0,0.0
37.0,0.0
38.0,0.0
39.0,0.0
40.0,0.0
41.0,0.0
42.0,0.0
43.0,0.0
44.0,0.0
45.0,0.0
46.0,0.0
47.0,0.0
48.0,0.0
49.0,0.0
50.0,0.0
51.0,0.0
52.0,0.0
53.0,0.0
54.0,0.0
55.0,0.0
56.0,0.0
57.0,0.0
58.0,0.0
59.0,0.0
60.0,0.0
61.0,0.0
62.0,0.0
63.0,0.0
64.0,0.0
65.0,0.0
66.0,0.0
67.0,0.0
68.0,0.0
69.0,0.0
70.0,0.0
71.0,0.0
72.0,0.0
73.0,0.0
74.0,0.0
75.0,0.0
76.0,0.0
77.0,0.0
78.0,0.0
79.0,0.0
80.0,0.0
81.0,0.0
82.0,0.0
83.0,0.0
84.0,0.0
85.0,0.0
86.0,0.0
87.0,0.0
88.0,0.0
89.0,0.0
90.0,0.0
91.0,0.0
92.0,0.0
93.0,0.0
94.0,0.0
95.0,0.0
96.0,0.0
97.0,0.0
98.0,0.0
99.0,0.0
100.0,0.0
101.0,0.0
102.0,0.0
103.0,0.0
104.0,0.0
105.0,0.0
106.0,0.0
107.0,0.0
108.0,0.0
109.0,0.0
110.0,0.0
111.0,0.0
112.0,0.0
113.0,0.0
114.0,0.0
115.0,0.0
116.0,0.0
117.0,0.0
118.0,0.0
119.0,0.0
120.0,0.0
121.0,0.0
122.0,112.83752780092989
123.0,-29.4659779327363
124.0,4.618766955886798
125.0,86.44429384680855
126.0,103.22986088476341
127.0,151.1129483440437
128.0,262.85608043392966
129.0,174.3612158532754
130.0,304.3091858756523
131.0,564.7175445726779
132.0,440.49293287501104
133.0,666.313094223916
134.0,977.2040988134655
135.0,949.1730251505721
136.0,1030.9797226304493
137.0,1004.1886507440876
138.0,976.4823554836478
139.0,1239.0522700817214
140.0,1271.692524352042
141.0,1219.79242459909
142.0,1211.1145267716915
143.0,941.3316946583388
144.0,760.817886184228
145.0,669.2341644693962
146.0,470.78286333222644
147.0,383.00394388672646
148.0,283.8444576726949
149.0,110.96219512870742
150.0,25.683845114076775
151.0,56.0647449221186
152.0,128.2670249698973
153.0,186.78454925109133
154.0,268.64450449346486
155.0,321.0737666994988
156.0,317.17630381481507
157.0,288.74459204095496
158.0,275.3538427862067
159.0,332.8041360835074
160.0,442.6496921946226
161.0,505.0285887722141
162.0,551.6372728818504
163.0,550.3734773047511
164.0,490.0279517409733
165.0,534.4736108955868
166.0,666.6130120651286
167.0,742.2473197944254
168.0,684.6423658166766
169.0,749.3171542336507
170.0,820.6788649886693
171.0,803.0641909854401
172.0,961.2405316048676
173.0,1051.1859387498948
174.0,984.8439886694167
175.0,930.8023334460173
176.0,958.046868943481
177.0,966.1828700990759
178.0,912.6438055769777
179.0,889.3717040595722
180.0,874.2637894462496
181.0,818.5999981751661
182.0,718.0981930355182
183.0,640.2049378546114
184.0,611.6286609025308
185.0,605.4873713336714
186.0,578.3147882232505
187.0,539.452591340407
188.0,511.99392016750147
189.0,500.5810244782497
190.0,490.4493655540145
191.0,503.0681663786722
192.0,523.1600086158934
193.0,523.7995170424517
194.0,519.4769333697643
195.0,495.78108139878975
196.0,462.7178568250211
197.0,434.9535922351874
198.0,348.5649601198475
199.0,349.28931336150157
200.0,444.6500775810605
201.0,361.8527139351779
202.0,284.92398044302325
203.0,239.96269901398333
204.0,128.02694177901682
205.0,67.86869682703886
206.0,177.95121042447863
207.0,278.8322536491086
208.0,110.84040005479626
209.0,63.28245626179331
210.0,86.77479467710157
211.0,56.82326196559764
212.0,136.7078032969246
213.0,123.48891258174615
214.0,65.36102584944166
215.0,113.49718652688745
216.0,81.26783459992991
217.0,93.45749735718317
218.0,147.01202315703964
219.0,74.436135358604
220.0,72.91306012160733
221.0,75.75761740415808
222.0,31.118347040945984
223.0,110.62655629937395
224.0,149.39806333893688
225.0,127.2435250460787
226.0,157.11798013848784
227.0,226.3838881007611
228.0,242.4358465191471
229.0,226.79250666846565
230.0,271.7206461516058
231.0,273.1990784982471
232.0,273.73096656327897
233.0,295.5409174012492
234.0,248.0956611283997
235.0,252.24066849619254
236.0,291.9443993889119
237.0,280.0872403534144
238.0,267.22629253447604
239.0,316.8709095274944
240.0,344.24867638846945
241.0,255.4871828573793
242.0,268.8766746632036
243.0,306.56896728459583
244.0,289.2854290965822
245.0,309.2677261848385
246.0,280.6378238191915
247.0,140.63008641363894
248.0,38.81642663851562
249.0,249.58638074463892
250.0,262.21022231608987
251.0,64.53437597760144
252.0,52.68513030889971
253.0,63.44187211263579
254.0,89.40370892654263
255.0,106.9356563710699
256.0,38.59489377746642
257.0,45.91280947617213
258.0,74.90563881536511
259.0,71.14012316436592
260.0,143.93790815667057
261.0,142.19239424551142
262.0,92.83226004505869
263.0,95.40903421011765
264.0,59.966364230059
265.0,134.48612510547875
266.0,249.5238134684483
267.0,193.2970865373797
268.0,154.4585556396346
269.0,121.42479942556854
270.0,81.73672369749303
271.0,135.49551782054954
272.0,209.85689026242372
273.0,225.6333728659276
274.0,144.44236807162898
275.0,11.114575540708884
276.0,85.27370988428774
277.0,262.7304467396236
278.0,233.43367264785417
279.0,41.6852466054222
280.0,123.41045740999122
281.0,306.58144372240736
282.0,130.9022093788289
283.0,287.06289333655417
284.0,399.25664646910184
285.0,184.87465508631922
286.0,179.30347384841753
287.0,425.5557040473169
288.0,617.367110131494
289.0,598.2624293668607
290.0,658.9973010668333
291.0,919.5377227346547
292.0,1083.1511039578725
293.0,953.0109269999157
294.0,1008.037339944285
295.0,1019.8404262666241
296.0,936.410289795038
297.0,981.514476053881
298.0,874.3425526194583
299.0,668.44292109696
300.0,582.0051357420383
301.0,652.9310960145353
302.0,534.3297221970276
303.0,380.38948654445966
304.0,403.80323252024476
305.0,404.6303234586642
306.0,374.91842809117736
307.0,362.20032300339216
308.0,398.69254843054193
309.0,479.8314098575712
310.0,504.04264128110793
311.0,498.7803575305458
312.0,547.1053115196114
313.0,545.6051400240772
314.0,625.5815391043024
315.0,811.6476304088957
316.0,921.4378358148462
317.0,923.3694765025708
318.0,1027.3234411407961
319.0,1293.7135215760734
320.0,1478.463959340773
321.0,1549.6316814155757
322.0,1668.5800736429535
323.0,1876.81625981622
324.0,1922.1029874534788
325.0,1797.438737451781
326.0,1641.0773552074593
327.0,1498.086702109796
328.0,1186.066160679995
329.0,857.0768071487348
330.0,650.2376953000673
331.0,557.4105828112716
332.0,532.530909790013
333.0,439.2950367817065
334.0,311.65706807170943
335.0,305.4446512706753
336.0,268.85015408501533
337.0,231.54286563613618
338.0,237.84754025216515
339.0,207.7329108640578
340.0,161.04617778288045
341.0,159.8124288665444
342.0,181.5397713734706
343.0,107.88588470477791
344.0,53.73942515828778
345.0,121.07361627974966
346.0,217.8514700171424
347.0,111.34775861789986
348.0,114.12905649295872
349.0,249.51520825402488
350.0,267.82850700666097
351.0,242.0048636137488
352.0,293.51331880912613
353.0,383.6124382531156
354.0,395.4011016317569
355.0,418.636723851536
356.0,439.7788327778076
357.0,388.3270501912142
358.0,289.55974661050584
359.0,376.58323327737816
360.0,381.3672717187265
361.0,275.57657029430595
362.0,496.2389694167676
363.0,591.4053505968616
364.0,503.4162409076855
365.0,507.5831404683461
366.0,671.6028490355907
367.0,577.2761270140558
368.0,470.58557236253375
369.0,650.5428272157033
370.0,631.1574116575789
371.0,597.3635502096976
372.0,644.6170799208462
373.0,654.9183839746943
374.0,659.7724645905503
375.0,861.2777918277687
376.0,1046.2101504849984
377.0,970.638470395112
378.0,1172.8844341956603
379.0,1149.1895651424152
380.0,1003.4588853697461
381.0,1425.5557931020082
382.0,1710.074778351738
383.0,1735.0401152389559
384.0,1769.0798724873473
385.0,1987.4919749006635
386.0,2301.1120267052424
387.0,2703.2573400946176
388.0,3069.2496804373563
389.0,3261.595464800436
390.0,3856.885674391467
391.0,4616.410438758439
392.0,5292.839359946447
393.0,6329.841898023276
394.0,7645.386599327794
395.0,9234.428753246966
396.0,11086.324124756466
397.0,12866.995042365625
398.0,13978.805910885452
399.0,14807.293519062325
400.0,15485.954402561916
401.0,14759.801888256567
402.0,13353.12726899208
403.0,11904.397505745279
404.0,10372.08235374807
405.0,8640.947342346644
406.0,7045.085035462076
407.0,5873.0511020509475
408.0,5102.664536780528
409.0,4458.946199071771
410.0,3868.1429652374895
411.0,3408.2138116833326
412.0,3109.372760782784
413.0,2806.0692520096236
414.0,2673.500512693595
415.0,2672.9712700633745
416.0,2548.4247007152953
417.0,2433.515157916369
418.0,2408.6011031294765
419.0,2424.4947811621646
420.0,2376.563072622812
421.0,2252.445857820276
422.0,2148.3326722834854
423.0,2124.4770470924664
424.0,2113.9989759886525
425.0,1977.9710877375878
426.0,1794.5557395579099
427.0,1657.7689140670377
428.0,1518.3776982877755
429.0,1301.9056054399261
430.0,1147.5236359411604
431.0,1085.3720689899592
432.0,955.5528011106038
433.0,939.4697514477947
434.0,903.6594250986186
435.0,816.0188511857143
436.0,906.9841841053077
437.0,774.8385669581858
438.0,690.404377058233
439.0,857.3034434841126
440.0,804.5609057118621
441.0,669.8360558025563
442.0,651.8398506612127
443.0,722.1934518014783
444.0,687.6705301747811
445.0,671.0069391931249
446.0,687.7849549481386
447.0,714.6111508266334
448.0,787.5988833292233
449.0,640.1578160226583
450.0,465.7453235771373
451.0,487.0298621295725
452.0,457.6598680026304
453.0,528.0666730173396
454.0,510.1150933429463
455.0,294.32757754687447
456.0,311.2774192311938
457.0,337.77820165688615
458.0,242.6040249822113
459.0,162.5223956296418
460.0,238.21964749952514
461.0,243.02864782497727
462.0,221.39365048121613
463.0,275.2338009039896
464.0,196.12703828766087
465.0,177.20646841171282
466.0,261.53070468911636
467.0,270.8968223214129
468.0,95.03706892465601
469.0,4.378953501462195
470.0,154.4527624960769
471.0,337.48501694347544
472.0,186.53494628580947
473.0,158.23736234260684
474.0,174.9158334717334
475.0,42.45093322984772
476.0,246.70313683401068
477.0,262.2311108986887
478.0,162.72310972376883
479.0,282.4424150099544
480.0,235.85710002641767
481.0,193.18225964826146
482.0,248.758682389103
483.0,280.0770982485762
484.0,216.2444417267526
485.0,267.7177429963892
486.0,294.83022500957605
487.0,145.740345933581
488.0,150.65262296010616
489.0,217.972702111237
490.0,159.31884203650984
491.0,49.63168222184045
492.0,210.36221942854834
493.0,276.79317855883266
494.0,220.45802320538556
495.0,209.35162215956393
496.0,115.0822486187119
497.0,89.42921036831132
498.0,165.96489835415161
499.0,212.38478050652594
500.0,134.10090914398924
501.0,97.33319537960236
502.0,132.9499219200986
503.0,132.79929842511572
504.0,53.3861927844365
505.0,54.642026843082036
506.0,73.72027139152738
507.0,19.74847405341167
508.0,28.138665168359577
509.0,114.78891832362672
510.0,112.1656618304589
511.0,41.348154936680245
512.0,168.73679162822626
513.0,102.75529125741457
514.0,39.963097944905456
515.0,143.40548597821285
516.0,40.86645601282572
517.0,62.12474500088014
518.0,173.65770433875392
519.0,138.83619649040045
520.0,7.949714603005631
521.0,171.07600149858382
522.0,298.1079825289423
523.0,180.13849602700648
524.0,190.34031676121927
525.0,181.98321687953123
526.0,120.29428654293105
527.0,74.27824244855448
528.0,55.437971126110114
529.0,3.9612207757505704
530.0,98.15008191371216
531.0,253.37946695337067
532.0,145.47035462881084
533.0,41.050365765143866
534.0,164.6356896834939
535.0,350.02968243474913
536.0,316.4382004064029
537.0,327.63596264912974
538.0,258.54669204879553
539.0,199.90805816494154
540.0,342.9065847268931
541.0,231.19092483893243
542.0,241.472246752839
543.0,415.9127525827594
544.0,383.78393606960867
545.0,316.0734938996431
546.0,325.7866503332912
547.0,370.5691720910678
548.0,336.55474856151585
549.0,206.87953143474778
550.0,227.34259485959018
551.0,280.67627750476754
552.0,220.87163256972354
553.0,350.2903854765391
554.0,335.5033839058565
555.0,261.1102099321773
556.0,362.4658798080959
557.0,440.14776718900737
558.0,550.0214313327848
559.0,572.918026550499
560.0,477.9334197640371
561.0,533.2495102491565
562.0,676.8509856241104
563.0,657.6341310447478
564.0,482.99467713328033
565.0,528.5248622852646
566.0,863.3788564756289
567.0,735.5241614137487
568.0,376.1333593816993
569.0,836.0964449043013
570.0,905.4318001544934
571.0,862.9043523221507
572.0,945.4744653333538
573.0,783.0515028931305
574.0,939.2090135009694
575.0,1008.4447921484198
576.0,894.5244080945021
577.0,934.9178345730074
578.0,820.1902851844926
579.0,673.8688897145545
580.0,741.2636894969985
581.0,895.5733418797702
582.0,641.1701761375255
583.0,592.2571523851168
584.0,648.3858899078524
585.0,460.0668965010824
586.0,488.94676399635574
587.0,518.2889633430314
588.0,533.5588323586431
589.0,604.0549653552463
590.0,566.8523426513699
591.0,450.74115860862554
592.0,334.3351286235418
593.0,266.09478199118786
594.0,264.961413563542
595.0,360.9727664643517
596.0,432.814688599891
597.0,358.94193038148177
598.0,224.47352827574508
599.0,340.0234899334521
600.0,432.84841311302034
601.0,329.81352233602394
602.0,191.14728854698976
603.0,105.12633764019668
604.0,54.19257576729595
605.0,46.795527753712875
606.0,89.84087433597313
607.0,105.79522530142732
608.0,85.48308653854701
609.0,55.52154995840512
610.0,39.794153808075116
611.0,38.677803068178726
612.0,33.83297294564208
613.0,26.075600736870655
614.0,69.66341261556207
615.0,160.7872881222361
616.0,27.62114999808295
617.0,119.9736419757681
618.0,365.0940778458282
619.0,141.52227340335932
620.0,88.42768143785784
621.0,85.27474715263814
622.0,91.79703469797627
623.0,242.4988551362366
624.0,128.54286052006196
625.0,132.5930014311941
626.0,183.88569373560063
627.0,69.41938404122101
628.0,242.43534519447198
629.0,271.7749017806653
630.0,106.1318566240678
631.0,103.74617794913348
632.0,346.8911032896096
633.0,245.06556255661704
634.0,128.10979859623572
635.0,181.08673153869128
636.0,20.5680641889139
637.0,198.75644675730328
638.0,320.1989282015184
639.0,195.99199529596373
640.0,233.96261520540597
641.0,419.9703207546417
642.0,439.9794424555112
643.0,392.24603174475374
644.0,449.5372474357515
645.0,287.3550463561804
646.0,290.2740565675566
647.0,440.5760397812254
648.0,441.30206121670903
649.0,339.08047020352325
650.0,463.2473572275967
651.0,456.17471086755097
652.0,364.8305286761182
653.0,699.6855894470856
654.0,589.4711049879342
655.0,528.8961418115215
656.0,661.9272222632344
657.0,521.9960934401797
658.0,605.9138546792807
659.0,810.4674138594619
660.0,957.1003962709028
661.0,960.4985369287155
662.0,754.4125033141573
663.0,776.7964583700029
664.0,1097.3011986483652
665.0,1306.671352508569
666.0,1168.0954148833912
667.0,1526.412164307988
668.0,1832.3784352862517
669.0,1933.7590629702215
670.0,2438.842562578703
671.0,2563.2361225748023
672.0,2727.7884648973186
673.0,3333.2635912271217
674.0,4129.465628846747
675.0,4782.44821291463
676.0,5612.554576251432
677.0,6937.4860604839405
678.0,8661.019394608076
679.0,10512.976077358366
680.0,13006.989627067203
681.0,16171.485418407412
682.0,20200.308389320457
683.0,25339.811234550798
684.0,30276.32115505988
685.0,33963.00086165747
686.0,36071.78778473066
687.0,36161.43501348292
688.0,33218.3420783378
689.0,29143.059466653045
690.0,25097.68000379565
691.0,21097.790285117568
692.0,17242.064013988078
693.0,13510.589761640924
694.0,11352.232827583997
695.0,10292.847593939232
696.0,8194.237263544206
697.0,7125.564505542805
698.0,6398.17305285611
699.0,5486.507213632252
700.0,4968.848428151541
701.0,4518.591964960377
702.0,4000.846028661706
703.0,3374.0661759671825
704.0,2905.7487516359256
705.0,3013.9317322925585
706.0,3012.5723381199987
707.0,2825.6264792264283
708.0,2476.7309666733186
709.0,1969.1596591105224
710.0,2100.2814148618263
711.0,1923.3893444726734
712.0,1633.9273292562036
713.0,1898.3502243889898
714.0,1560.9147084191022
715.0,1660.2714488673487
716.0,1628.9157201207872
717.0,1065.8086716112637
718.0,1327.1094025089917
719.0,1564.0605103268504
720.0,1456.034551193464
721.0,1269.645698493781
722.0,1206.0749803062663
723.0,1150.183176905175
724.0,1124.5679585596508
725.0,1113.7156907352316
726.0,1104.8844076860719
727.0,1180.4511813784156
728.0,1213.4791574341125
729.0,1084.207829500819
730.0,970.2098020745043
731.0,1100.4050428342905
732.0,1023.7995483162647
733.0,863.1145586895198
734.0,819.3502689508686
735.0,848.3776339702521
736.0,851.0271002421756
737.0,820.803425317896
738.0,784.9684995328553
739.0,779.7154275659285
740.0,792.7948983305478
741.0,681.2342701796321
742.0,732.3915997263358
743.0,867.6669619942209
744.0,781.1139923479371
745.0,929.0684286843673
746.0,993.7275445953923
747.0,748.0591598222776
748.0,557.6041881851761
749.0,825.2741952570804
750.0,596.9071198119433
751.0,639.7113658956109
752.0,1037.387242643092
753.0,697.4591664629065
754.0,723.3457097172163
755.0,889.1077711972306
756.0,807.6951908036991
757.0,744.0092543483373
758.0,1027.7828269599836
759.0,761.5789437839825
760.0,530.0063502570274
761.0,755.8131687800595
762.0,696.3349433893094
763.0,693.8240787226913
764.0,660.7901628890301
765.0,470.5464338659414
766.0,374.8510461001262
767.0,670.3044480891338
768.0,539.6527345686487
769.0,329.15650728265405
770.0,487.4316364077063
771.0,500.1693895895658
772.0,372.3486896194846
773.0,383.2220087031249
774.0,467.864703567502
775.0,426.56905651534527
776.0,481.06467656200556
777.0,477.7549231022285
778.0,409.22475412962893
779.0,347.36519820356625
780.0,279.2563568699113
781.0,308.7096590065236
782.0,237.02352816944466
783.0,139.50321885606417
784.0,237.8223763405561
785.0,314.99305386902347
786.0,461.6025537561532
787.0,347.1754590261976
788.0,56.29638275891937
789.0,259.64493386993047
790.0,312.086618081761
791.0,142.29484711561193
792.0,159.04569632181375
793.0,372.42528811763066
794.0,125.23275234940249
795.0,95.58984627137565
796.0,251.34653554289613
797.0,263.63866050875265
798.0,271.773428019279
799.0,121.45041147340189
800.0,52.32088433941156
801.0,137.9495658955961
802.0,155.6808856274602
803.0,62.43409419469751
804.0,201.4045764896856
805.0,295.04775103648893
806.0,177.47163636887709
807.0,190.63067183615104
808.0,131.0312201089275
809.0,66.49658560746673
810.0,36.181947468845095
811.0,56.085314542979006
812.0,232.7382434654448
813.0,131.68305675381595
814.0,14.966141155481933
815.0,91.13092563389641
816.0,93.22273835865144
817.0,140.46073485558776
818.0,79.01639816347
819.0,-6.085320570847046
820.0,29.494528080619588
821.0,15.431035922591878
822.0,37.38882389948444
823.0,163.51788325184802
824.0,233.95990043702815
825.0,92.92285870112345
826.0,4.3169376892121845
827.0,22.579770971028367
828.0,69.52229492979673
829.0,77.41536647648061
830.0,68.37568345874215
831.0,131.60058816352446
832.0,139.2381402945643
833.0,53.868071093853004
834.0,3.4477978204792645
835.0,26.710134493425265
836.0,14.95452979379727
837.0,97.05398412592973
838.0,207.57654433156875
839.0,67.78521082224005
840.0,58.09239671255958
841.0,279.50191096628663
842.0,381.16221466005135
843.0,162.42537112143322
844.0,56.047130549089516
845.0,274.5217363158238
846.0,251.16622627731948
847.0,-13.094192055212623
848.0,88.04575111798466
849.0,218.86048534328614
850.0,246.2787378551874
851.0,212.56266233197556
852.0,204.85639412344156
853.0,229.79412046267075
854.0,97.2296112267298
855.0,-7.543805770259119
856.0,127.45111475436072
857.0,318.6435902195139
858.0,133.41343005097346
859.0,-6.818886868232931
860.0,76.02285689727802
861.0,167.73364870829926
862.0,102.23504904974253
863.0,107.40251937767803
864.0,169.1751393543339
865.0,208.9106773703971
866.0,186.43154849139395
867.0,132.89557699989422
868.0,217.87804949689257
869.0,206.01320865556102
870.0,63.73338452298819
871.0,8.52883963256721
872.0,6.917595889627387
873.0,-3.446410365955902
874.0,111.16783667075434
875.0,251.96601400219407
876.0,162.39369993182584
877.0,150.78239227957965
878.0,294.5549072029969
879.0,381.7838343536256
880.0,276.78305821302155
881.0,156.94570671406396
882.0,196.05016681124818
883.0,282.459859397754
884.0,228.71827469767172
885.0,104.60483628237182
886.0,189.27136191153778
887.0,134.30845121928724
888.0,196.12974102406213
889.0,308.84231142998175
890.0,67.03947926067669
891.0,87.35888220192048
892.0,353.3063505303793
893.0,365.8168352701987
894.0,156.92634336365535
895.0,264.3454862726685
896.0,150.51355344098482
897.0,41.49203355997157
898.0,254.810980170848
899.0,503.52853186343754
900.0,292.15227256635274
901.0,297.53140123519586
902.0,290.97058264817434
903.0,325.38086129193175
904.0,587.915031892686
905.0,228.60333339811484
906.0,166.38127603398522
907.0,489.15072550531903
908.0,576.5253708468603
909.0,334.9928854259327
910.0,406.213112692561
911.0,423.03972971761766
912.0,453.39087170071934
913.0,539.6957544150051
914.0,324.32781862925856
915.0,553.9283315920818
916.0,487.14909632131867
917.0,145.42307426816825
918.0,205.8378635228608
919.0,391.9496311365486
920.0,492.06989071377836
921.0,392.0275308973985
922.0,292.1762289712229
923.0,384.08611235210486
924.0,393.47315504184354
925.0,413.4325861982205
926.0,423.64448939340735
927.0,393.02958050435075
928.0,383.545536055085
929.0,356.302083328029
930.0,294.45763768172947
931.0,405.4660341642988
932.0,502.6689178657331
933.0,180.7015978950912
934.0,174.8265340082234
935.0,504.5171917531438
936.0,515.8546420486463
937.0,202.51329392241877
938.0,354.02072195825275
939.0,260.04572736190437
940.0,104.45287142884999
941.0,247.3293414729496
942.0,425.81493445300987
943.0,159.4416260949847
944.0,32.91531399775466
945.0,121.83917716864666
946.0,285.7689162849606
947.0,425.87238620208103
948.0,320.59794159916027
949.0,125.50452271069892
950.0,133.55211909693057
951.0,307.39029429293345
952.0,337.75197138994747
953.0,221.99381852701458
954.0,290.53598915766725
955.0,353.2207019018848
956.0,290.96380685831997
957.0,330.13548587874294
958.0,297.1852521620176
959.0,241.51369244674294
960.0,269.4620876410504
961.0,270.3464086534918
962.0,120.02793277102722
963.0,183.31954788709297
964.0,123.54004224251636
965.0,-5.379206264913573
966.0,80.33029254497548
967.0,248.95175143684315
968.0,318.76919647712276
969.0,162.6468959727119
970.0,94.90182840332713
971.0,237.89127651868412
972.0,134.57881632140433
973.0,50.52797314959087
974.0,109.76237979636177
975.0,245.5104445240532
976.0,346.365616775911
977.0,314.438725195523
978.0,130.78737660810376
979.0,223.05588004855971
980.0,510.6066598927223
981.0,446.0335855645794
982.0,152.95713729570673
983.0,664.4165901403444
984.0,554.2722295549344
985.0,103.67259544805327
986.0,738.2729999999999
987.0,862.1058297990265
988.0,549.3517841739272
989.0,606.1550456765654
990.0,913.7017306789845
991.0,860.2160856104326
992.0,859.0849896748668
993.0,948.5877617648283
994.0,1187.6879831605922
995.0,1548.088322700336
996.0,1792.4900331895094
997.0,1800.273933182241
998.0,2037.3668697748565
999.0,1907.574132626038
1000.0,1801.9621934403408
1001.0,2445.0787708542257
1002.0,2057.0595271083944
1003.0,2020.932579385161
1004.0,2294.563632305063
1005.0,2256.3490314569485
1006.0,2256.6198837490183
1007.0,2440.6240672286854
1008.0,2300.6215553729594
1009.0,2153.873468196873
1010.0,2224.17056923788
1011.0,2203.93925452909
1012.0,2298.1450804195883
1013.0,2236.729740504688
1014.0,2086.689653322171
1015.0,1920.3768157628176
1016.0,1710.3118791519714
1017.0,1820.363675133456
1018.0,1801.9629854631987
1019.0,1445.185551267017
1020.0,1146.083166880805
1021.0,1273.448217675482
1022.0,1376.8928086736196
1023.0,1127.460300018767
1024.0,1166.4599002577243
1025.0,1345.7049747577803
1026.0,877.2372435892527
1027.0,747.9289808832068
1028.0,809.1357073642475
1029.0,948.2047608334975
1030.0,975.5621484594388
1031.0,644.7286413529721
1032.0,439.6828932196219
1033.0,607.9918800028081
1034.0,634.9611761048554
1035.0,492.09573763027623
1036.0,622.0669090057933
1037.0,560.2649847399623
1038.0,632.9565823863928
1039.0,732.3312274808197
1040.0,850.147432384643
1041.0,1046.549964261924
1042.0,740.6205854954601
1043.0,747.3138494917472
1044.0,896.1398468111931
1045.0,836.6212209464707
1046.0,802.2897911927005
1047.0,845.2606882014796
1048.0,774.747432279433
1049.0,996.6021673536015
1050.0,1281.220293329425
1051.0,1189.7847536418467
1052.0,1454.3797413400239
1053.0,1657.0290168501513
1054.0,1676.6535473663382
1055.0,1642.1765169129621
1056.0,1654.272997180882
1057.0,1859.0469417052402
1058.0,2284.2210590659247
1059.0,2578.535441289744
1060.0,2631.8798146549257
1061.0,2801.640360469992
1062.0,3327.5364398231313
1063.0,3602.0472361359625
1064.0,3649.8684521105447
1065.0,3758.603951068534
1066.0,3899.5234225904765
1067.0,3960.578822107975
1068.0,4437.6402847579675
1069.0,4401.865044477476
1070.0,4057.863692517681
1071.0,4223.1545971748155
1072.0,4441.99243795245
1073.0,4099.55900810807
1074.0,3934.038941250601
1075.0,4063.4427189634876
1076.0,3987.4697971461815
1077.0,3614.346092278518
1078.0,3262.397052125225
1079.0,3452.753576456464
1080.0,3416.4020195572953
1081.0,2908.645700161932
1082.0,2772.2715727998157
1083.0,2578.781067317944
1084.0,2595.1956385236454
1085.0,2497.8375360643163
1086.0,2176.733220362936
1087.0,2052.930809574241
1088.0,1997.5129851596344
1089.0,1939.742463260216
1090.0,1688.7769370666367
1091.0,1499.0168344870779
1092.0,1575.932454878039
1093.0,1349.6286986229393
1094.0,1217.4651009911722
1095.0,1372.346149580435
1096.0,1366.010711875837
1097.0,1091.4580244726365
1098.0,1204.8904960081245
1099.0,1205.8485932633102
1100.0,1160.6254949461827
1101.0,1008.363718008161
1102.0,886.718935050964
1103.0,1163.110116491392
1104.0,933.5874319052434
1105.0,935.6463764844896
1106.0,872.4557131416838
1107.0,730.2243526706429
1108.0,1160.544046097306
1109.0,719.8996359131884
1110.0,835.7691814837455
1111.0,1132.940180658762
1112.0,902.8663173841476
1113.0,801.4138406344902
1114.0,1057.9431391390558
1115.0,1114.5630437840825
1116.0,870.2471379658416
1117.0,716.7012316619837
1118.0,882.3279567452078
1119.0,1026.6457223753418
1120.0,833.0290460588077
1121.0,806.393370961725
1122.0,885.0787311392685
1123.0,755.0526189035668
1124.0,783.492455567057
1125.0,1046.3840978164146
1126.0,825.8378820428381
1127.0,741.0964480821448
1128.0,925.3062960715316
1129.0,576.8838579243575
1130.0,889.268389486857
1131.0,1102.483588451206
1132.0,990.0560921361597
1133.0,821.4369937054358
1134.0,691.8683063606751
1135.0,769.9076456915928
1136.0,1048.4088867962419
1137.0,1011.7325277200626
1138.0,997.0595277876002
1139.0,1234.7145186579792
1140.0,881.7855747184949
1141.0,756.783886372422
1142.0,777.9776646508252
1143.0,767.4255265822096
1144.0,813.8061689854404
1145.0,944.165624017822
1146.0,1098.0098137594425
1147.0,1129.4644297141288
1148.0,1061.412653797514
1149.0,891.1601372947414
1150.0,676.0456372659647
1151.0,729.6791676772573
1152.0,799.7828856597845
1153.0,944.2552391923139
1154.0,700.9697118277255
1155.0,274.64945719803177
1156.0,823.8157025946794
1157.0,546.452887636102
1158.0,347.17283046923137
1159.0,436.24272324244845
1160.0,368.1931767033868
1161.0,375.581317435979
1162.0,189.96386663617653
1163.0,402.24520789516714
1164.0,436.0052273142277
1165.0,340.71728282767884
1166.0,565.7027765542946
1167.0,163.787424227511
1168.0,257.11263330480136
1169.0,423.8404787684854
1170.0,489.62563933705127
1171.0,573.5729079935605
1172.0,264.9878429921332
1173.0,236.42777632156032
1174.0,262.1524484424794
1175.0,144.44590141624852
1176.0,229.62649564277365
1177.0,515.6721771390925
1178.0,188.75109030919282
1179.0,461.51062903512303
1180.0,647.3781856722032
1181.0,400.9197527618885
1182.0,422.87905840866324
1183.0,645.9807843784248
1184.0,692.3751676897164
1185.0,707.9443395658914
1186.0,643.5606592512038
1187.0,552.9024121847469
1188.0,656.3418172352397
1189.0,610.0831826361116
1190.0,729.1610898291
1191.0,851.6773880804475
1192.0,961.97070979627
1193.0,1039.9304056092208
1194.0,691.9135844139191
1195.0,789.1259169503144
1196.0,680.1329364823621
1197.0,814.6932355215364
1198.0,1100.689636185607
1199.0,498.0326010483617
1200.0,772.7066200284755
1201.0,848.6186216685737
1202.0,849.9434093000928
1203.0,1057.057166434352
1204.0,1036.8871313084926
1205.0,927.0411464970264
1206.0,898.6227519307786
1207.0,928.030920528001
1208.0,933.2096691409484
1209.0,835.9103852749936
1210.0,690.5131265621942
1211.0,768.8476871407843
1212.0,828.0832497746533
1213.0,775.012613776
1214.0,790.636501854514
1215.0,896.7256182877029
1216.0,843.4399632676638
1217.0,871.9388045160425
1218.0,1018.9871496483561
1219.0,1027.4491216969568
1220.0,862.3050916360361
1221.0,874.3992760494948
1222.0,1098.8758172186192
1223.0,818.6477110604912
1224.0,828.4266314695008
1225.0,1104.033209816155
1226.0,957.34014729001
1227.0,897.2099646917759
1228.0,783.2521739849828
1229.0,767.5455344469345
1230.0,845.3223219756285
1231.0,868.2450603502434
1232.0,752.9408085401974
1233.0,534.3955168688984
1234.0,683.3464012249974
1235.0,692.1872973539016
1236.0,339.4957046319116
1237.0,346.89507983422214
1238.0,926.0221635727463
1239.0,531.6553323757627
1240.0,391.8057821159176
1241.0,706.5096000496866
1242.0,713.9032091452892
1243.0,407.1705443819105
1244.0,395.0501050401618
1245.0,435.94870991903787
1246.0,501.3508178084097
1247.0,607.9488108272501
1248.0,477.2580677636954
1249.0,164.75605790405604
1250.0,527.3960862062186
1251.0,457.8069967692953
1252.0,253.25216086699794
1253.0,353.39483979277577
1254.0,451.3470645130215
1255.0,351.66311056280307
1256.0,87.22753455545583
1257.0,35.944473662070784
1258.0,11.993675209706563
1259.0,62.99562742756727
1260.0,325.3503336428502
1261.0,191.33016276048633
1262.0,227.65093709311293
1263.0,304.15963895662316
1264.0,252.46963288995343
1265.0,126.26769565333836
1266.0,6.843679436656167
1267.0,83.7176814325466
1268.0,105.98728836816626
1269.0,80.09559414651702
1270.0,147.50518154285967
1271.0,236.57488982224686
1272.0,154.25621753241512
1273.0,39.496024900604965
1274.0,69.7920724442602
1275.0,104.82129513108544
1276.0,46.095354191767235
1277.0,11.245222181978601
1278.0,69.7702642229307
1279.0,190.07579462425878
1280.0,228.83194325241107
1281.0,155.1576596586173
1282.0,62.19117050789139
1283.0,6.676659187326681
1284.0,-11.922232938703445
1285.0,170.22006620622807
1286.0,162.12125521292353
1287.0,80.11887795318847
1288.0,131.3698671887236
1289.0,78.54184756157763
1290.0,140.32689157119268
1291.0,208.6646537326659
1292.0,221.3684844088999
1293.0,133.7046648197911
1294.0,3.419010758970868
1295.0,1.6339630719401104
1296.0,21.297198424810837
1297.0,110.54604203342772
1298.0,83.33239362809437
1299.0,19.48015916243291
1300.0,151.09309117130778
1301.0,256.2464888997413
1302.0,173.38939768951857
1303.0,63.51450598839949
1304.0,74.60981715409783
1305.0,95.95180116734747
1306.0,36.454347540017096
1307.0,154.6718797023064
1308.0,444.7679828089608
1309.0,202.3373709201279
1310.0,210.84655708496777
1311.0,462.627104002028
1312.0,40.47816285895787
1313.0,207.31972171906776
1314.0,171.01598953592836
1315.0,407.3708114406968
1316.0,453.32516834613784
1317.0,110.85293136641651
1318.0,275.953
1319.0,248.22534648927652
1320.0,256.74043500474227
1321.0,380.79836644525324
1322.0,335.0195184519635
1323.0,239.8222262414554
1324.0,351.7862712947888
1325.0,102.5521174027726
1326.0,586.178231629326
1327.0,669.6774486092378
1328.0,148.29563713986448
1329.0,14.432935429528019
1330.0,237.5935240189345
1331.0,631.8089117854913
1332.0,584.5692076801913
1333.0,478.8338474889284
1334.0,479.8714060158668
1335.0,380.9870741796264
1336.0,383.1925478275192
1337.0,460.57580881175255
1338.0,402.8187936709383
1339.0,465.4329819533716
1340.0,751.6229233318174
1341.0,882.9757010150432
1342.0,669.7444292856513
1343.0,610.8475952628432
1344.0,477.54605358104857
1345.0,665.708533146478
1346.0,785.1819440812379
1347.0,626.2039662094829
1348.0,1064.0456717916795
1349.0,856.5661166450602
1350.0,734.9872339128759
1351.0,763.7036334434767
1352.0,681.9566181815405
1353.0,686.0117953248886
1354.0,813.6689278573159
1355.0,694.1018280822634
1356.0,580.6806744400625
1357.0,751.2777509628355
1358.0,1060.7631068930611
1359.0,974.1570999898452
1360.0,519.0308628291323
1361.0,965.2369579156252
1362.0,882.254935060878
1363.0,598.3100390584234
1364.0,776.4380409865744
1365.0,958.2758060318182
1366.0,842.995653943191
1367.0,804.1774039003989
1368.0,809.7939343394024
1369.0,963.7333082359953
1370.0,774.1201809682681
1371.0,447.3403765444498
1372.0,932.4616814318856
1373.0,676.2553946002832
1374.0,484.2902003219087
1375.0,585.2475762586645
1376.0,643.8943857921993
1377.0,614.9608171296039
1378.0,619.5800522610626
1379.0,649.8819443329656
1380.0,700.0755470950371
1381.0,724.3235958421045
1382.0,657.6072770309164
1383.0,552.7738196376137
1384.0,577.362980578663
1385.0,710.366546429873
1386.0,611.2687765436093
1387.0,556.2260977300292
1388.0,575.4565994997542
1389.0,494.66644537562115
1390.0,477.2639610171329
1391.0,640.8246501316873
1392.0,599.2418620004365
1393.0,397.2690490619073
1394.0,387.0158802388388
1395.0,473.1796522970336
1396.0,348.522918649829
1397.0,331.45870396537873
1398.0,449.671778037877
1399.0,448.2130348952677
1400.0,310.2102170497188
1401.0,325.95514844839573
1402.0,475.95267134617603
1403.0,338.276854330135
1404.0,331.2607560927665
1405.0,315.0217876175956
1406.0,444.74667850219436
1407.0,355.95912094533884
1408.0,2.3643599364992656
1409.0,339.67641866527606
1410.0,408.47188520095136
1411.0,227.09869539376382
1412.0,322.21394637874266
1413.0,431.4748646859462
1414.0,261.11787142648024
1415.0,272.1556540331671
1416.0,373.28744557894555
1417.0,435.74379812296314
1418.0,259.7460367197066
1419.0,330.27834858409204
1420.0,516.1008216555879
1421.0,274.0459779734656
1422.0,527.7349019272273
1423.0,118.56897170522697
1424.0,207.37759828298874
1425.0,454.802137728286
1426.0,283.86837104671054
1427.0,331.5086989616631
1428.0,311.36987060205985
1429.0,74.89113936915885
1430.0,-81.64029230561209
1431.0,0.0
1432.0,0.0
1433.0,0.0
1434.0,0.0
1435.0,0.0
1436.0,0.0
1437.0,0.0
1438.0,0.0
1439.0,0.0
1440.0,0.0
1441.0,0.0
1442.0,0.0
1443.0,0.0
1444.0,0.0
1445.0,0.0
1446.0,0.0
1447.0,0.0
1448.0,0.0
1449.0,0.0
1450.0,0.0
1451.0,0.0
1452.0,0.0
1453.0,0.0
1454.0,0.0
1455.0,0.0
1456.0,0.0
1457.0,0.0
1458.0,0.0
1459.0,0.0
1460.0,0.0
1461.0,0.0
1462.0,0.0
1463.0,0.0
1464.0,0.0
1465.0,0.0
1466.0,0.0
1467.0,0.0
1468.0,0.0
1469.0,0.0
1470.0,0.0
1471.0,0.0
1472.0,0.0
1473.0,0.0
1474.0,0.0
1475.0,0.0
1476.0,0.0
1477.0,0.0
1478.0,0.0
1479.0,0.0
1480.0,0.0
1481.0,0.0
1482.0,0.0
1483.0,0.0
1484.0,0.0
1485.0,0.0
1486.0,0.0
1487.0,0.0
1488.0,0.0
1489.0,0.0
1490.0,0.0
1491.0,0.0
1492.0,0.0
1493.0,0.0
1494.0,0.0
1495.0,0.0
1496.0,0.0
1497.0,0.0
1498.0,0.0
1499.0,0.0
1500.0,0.0
1501.0,0.0
1502.0,0.0
1503.0,0.0
1504.0,0.0
1505.0,0.0
1506.0,0.0
1507.0,0.0
1508.0,0.0
1509.0,0.0
1510.0,0.0
1511.0,0.0
1512.0,0.0
1513.0,0.0
1514.0,0.0
1515.0,0.0
1516.0,0.0
1517.0,0.0
1518.0,0.0
1519.0,0.0
1520.0,0.0
1521.0,0.0
1522.0,0.0
1523.0,0.0
1524.0,0.0
1525.0,0.0
1526.0,0.0
1527.0,0.0
1528.0,0.0
1529.0,0.0
1530.0,0.0
1531.0,0.0
1532.0,0.0
1533.0,0.0
1534.0,0.0
1535.0,0.0
1536.0,0.0
1537.0,0.0
1538.0,0.0
1539.0,0.0
1540.0,0.0
1541.0,0.0
1542.0,0.0
1543.0,0.0
1544.0,0.0
1545.0,0.0
1546.0,0.0
1547.0,0.0
1548.0,0.0
1549.0,0.0
1550.0,0.0
1551.0,0.0
1552.0,0.0
1553.0,0.0
1554.0,0.0
1555.0,0.0
1556.0,0.0
1557.0,0.0
1558.0,0.0
1559.0,0.0
1560.0,0.0
1561.0,0.0
1562.0,0.0
1563.0,0.0
1564.0,0.0
1565.0,0.0
1566.0,0.0
1567.0,0.0
1568.0,0.0
1569.0,0.0
1570.0,0.0
1571.0,0.0
1572.0,0.0
1573.0,0.0
1574.0,0.0
1575.0,0.0
1576.0,0.0
1577.0,0.0
1578.0,0.0
1579.0,0.0
1580.0,0.0
1581.0,0.0
1582.0,0.0
1583.0,0.0
1584.0,0.0
1585.0,0.0
1586.0,0.0
1587.0,0.0
1588.0,0.0
1589.0,0.0
1590.0,0.0
1591.0,0.0
1592.0,0.0
1593.0,0.0
1594.0,0.0
1595.0,0.0
1596.0,0.0
1597.0,0.0
1598.0,0.0
1599.0,0.0
