0.0,0.0
1.0,0.0
2.0,0.0
3.0,0.0
4.0,0.0
5.0,0.0
6.0,0.0
7.0,0.0
8.0,0.0
9.0,0.0
10.0,0.0
11.0,0.0
12.0,0.0
13.0,0.0
14.0,0.0
15.0,0.0
16.0,0.0
17.0,0.0
18.0,0.0
19.0,0.0
20.0,0.0
21.0,0.0
22.0,0.0
23.0,0.0
24.0,0.0
25.0,0.0
26.0,0.0
27.0,0.0
28.0,0.0
29.0,0.0
30.0,0.0
31.0,0.0
32.0,0.0
33.0,0.0
34.0,0.0
35.0,0.0
36.0,0.0
37.0,0.0
38.0,0.0
39.0,0.0
40.0,0.0
41.0,0.0
42.0,0.0
43.0,0.0
44.0,0.0
45.0,0.0
46.0,0.0
47.0,0.0
48.0,0.0
49.0,0.0
50.0,0.0
51.0,0.0
52.0,0.0
53.0,0.0
54.0,0.0
55.0,0.0
56.0,0.0
57.0,0.0
58.0,0.0
59.0,0.0
60.0,0.0
61.0,0.0
62.0,0.0
63.0,0.0
64.0,0.0
65.0,0.0
66.0,0.0
67.0,0.0
68.0,0.0
69.0,0.0
70.0,0.0
71.0,0.0
72.0,0.0
73.0,0.0
74.0,0.0
75.0,0.0
76.0,0.0
77.0,0.0
78.0,0.0
79.0,0.0
80.0,0.0
81.0,0.0
82.0,0.0
83.0,0.0
84.0,0.0
85.0,0.0
86.0,0.0
87.0,0.0
88.0,0.0
89.0,0.0
90.0,0.0
91.0,0.0
92.0,0.0
93.0,0.0
94.0,0.0
95.0,0.0
96.0,0.0
97.0,0.0
98.0,0.0
99.0,0.0
100.0,0.0
101.0,0.0
102.0,0.0
103.0,0.0
104.0,0.0
105.0,0.0
106.0,0.0
107.0,0.0
108.0,0.0
109.0,0.0
110.0,0.0
111.0,0.0
112.0,0.0
113.0,0.0
114.0,0.0
115.0,0.0
116.0,0.0
117.0,0.0
118.0,0.0
119.0,0.0
120.0,0.0
121.0,0.0
122.0,0.0
123.0,0.0
124.0,0.0
125.0,0.0
126.0,0.0
127.0,0.0
128.0,0.0
129.0,0.0
130.0,0.0
131.0,0.0
132.0,0.0
133.0,0.0
134.0,0.0
135.0,0.0
136.0,0.0
137.0,0.0
138.0,0.0
139.0,0.0
140.0,0.0
141.0,0.0
142.0,0.0
143.0,0.0
144.0,0.0
145.0,0.0
146.0,0.0
147.0,0.0
148.0,0.0
149.0,0.0
150.0,0.0
151.0,0.0
152.0,0.0
153.0,0.0
154.0,0.0
155.0,0.0
156.0,0.0
157.0,0.0
158.0,0.0
159.0,0.0
160.0,0.0
161.0,0.0
162.0,0.0
163.0,0.0
164.0,0.0
165.0,0.0
166.0,0.0
167.0,0.0
168.0,0.0
169.0,-2.682299158124378
170.0,0.3074177844589801
171.0,0.10148943313092179
172.0,1.3078370381680917
173.0,1.5299251499944915
174.0,1.8006301598764618
175.0,2.892531365311656
176.0,4.440257349140156
177.0,5.0748815145511035
178.0,5.329786287921898
179.0,5.656056981724906
180.0,6.510351832076919
181.0,6.088299367742381
182.0,6.6003489917294615
183.0,7.1781444158669085
184.0,7.18217356222056
185.0,7.991313447296993
186.0,8.725216145889778
187.0,8.613063314075761
188.0,7.9117969562959365
189.0,7.682674075110184
190.0,8.024855308995798
191.0,8.00160120473614
192.0,7.453953175446573
193.0,6.7066503100072
194.0,6.261537335595828
195.0,6.717166749064076
196.0,6.797375843058439
197.0,6.262879449731825
198.0,6.4571882602775625
199.0,6.1576492140190044
200.0,5.74737647607733
201.0,5.68072024674756
202.0,6.052015206658833
203.0,5.364424528655766
204.0,5.628845689164903
205.0,6.104660030665559
206.0,6.043370911392401
207.0,6.016059847099392
208.0,5.676896838683439
209.0,5.137269726417196
210.0,4.54535699462759
211.0,4.008122169870694
212.0,3.6217605898366623
213.0,4.154288003560323
214.0,4.603126575996124
215.0,4.1247342820252495
216.0,3.6355017949254362
217.0,3.2116251562520732
218.0,3.3483760561563933
219.0,3.8851810860735276
220.0,4.387026883116006
221.0,4.405294505627369
222.0,4.610207951406165
223.0,4.711908230504791
224.0,4.380139926268796
225.0,4.149612622396749
226.0,4.68977943998448
227.0,4.5597455675231755
228.0,4.0695355111512
229.0,5.281928665268533
230.0,4.471696763196899
231.0,4.6028719773514215
232.0,5.2499296261903465
233.0,5.372859915785616
234.0,5.879938750849997
235.0,6.265909531378137
236.0,6.426298548569012
237.0,6.459719106101009
238.0,6.587874252351503
239.0,6.447627683110935
240.0,6.640153296761076
241.0,6.704646569670519
242.0,6.327885618309379
243.0,7.22275437242257
244.0,6.551839674062201
245.0,6.084134632137424
246.0,6.452577670442524
247.0,6.783585040428729
248.0,6.825992104750958
249.0,7.153872013256797
250.0,7.892444496201853
251.0,8.748369401901098
252.0,8.86057330658015
253.0,7.479750175108072
254.0,6.415004140243652
255.0,5.519529974249213
256.0,3.5126290656024057
257.0,2.0214339100247796
258.0,1.3868228082424723
259.0,1.0404098220930602
260.0,0.38015682717370747
261.0,0.6768534315519529
262.0,0.9058079196996169
263.0,0.34351748913606706
264.0,0.0415422085976758
265.0,0.4432403957662311
266.0,0.23020614588293292
267.0,0.07015359035096475
268.0,0.20611295524665976
269.0,0.570234618259247
270.0,0.7836689083972666
271.0,0.3396852654512412
272.0,0.03531185953113983
273.0,0.19804769339188463
274.0,0.2011776893228025
275.0,0.2129292425882714
276.0,0.5503705791171266
277.0,0.6843769034592736
278.0,0.8218822474050034
279.0,1.5678051507261879
280.0,1.1451202134544796
281.0,1.575663341637458
282.0,2.119490237391606
283.0,2.097793850498236
284.0,2.4671934304824834
285.0,2.4771296273979457
286.0,2.720226322246043
287.0,2.7772708925611957
288.0,2.289003421940614
289.0,2.939525289580343
290.0,2.6674431218775245
291.0,2.797705478447561
292.0,3.27174282653969
293.0,2.693885361434147
294.0,3.687068344335337
295.0,4.362006457648383
296.0,4.809904583167308
297.0,5.3400896373367175
298.0,5.628535556489377
299.0,6.6042861639060435
300.0,7.088390180436746
301.0,7.196370418017988
302.0,7.768499013789486
303.0,9.43909986965737
304.0,10.185618632361015
305.0,11.276273856582714
306.0,13.01457028110813
307.0,14.610201796729289
308.0,16.657545702706837
309.0,18.754510522966907
310.0,20.68371213798895
311.0,22.59178697062141
312.0,25.0361983822441
313.0,28.542049628593475
314.0,31.78860682932473
315.0,35.28267237689618
316.0,39.80724494644615
317.0,45.310427862301985
318.0,52.61231526575561
319.0,59.90332739555663
320.0,66.93265550788685
321.0,73.867533837358
322.0,77.68800529666679
323.0,74.96624896693454
324.0,65.14450651776359
325.0,50.276968405299854
326.0,34.73514077194923
327.0,23.77650015121836
328.0,16.127464013877095
329.0,10.876285487724436
330.0,7.393081616401312
331.0,5.813828649881568
332.0,4.084513670061979
333.0,2.818244970632192
334.0,2.0580707944720085
335.0,1.5770010537476533
336.0,1.0641887839939548
337.0,1.1297983154296127
338.0,0.6528142377016982
339.0,0.01788684222701006
340.0,0.12768022846806168
341.0,0.33322029243058354
342.0,0.09486518393955094
343.0,0.42406307041041646
344.0,0.37151791477519563
345.0,0.1983469790276745
346.0,0.1624737798818881
347.0,0.05618939623575287
348.0,0.03362253289243339
349.0,0.20711379976158498
350.0,0.04222578016722157
351.0,0.1966606177329976
352.0,0.31695787565249695
353.0,0.696789909022695
354.0,0.25936733950300284
355.0,1.5261914861845036
356.0,0.5943628958491891
357.0,0.32606692418995564
358.0,0.6174398065661043
359.0,0.47727685418181776
360.0,0.08405338459613804
361.0,0.8785090535167851
362.0,0.9953618055615412
363.0,0.6308256424475372
364.0,0.6092171577238849
365.0,0.15939549044535278
366.0,2.65277027483813
367.0,3.0522760924983237
368.0,1.4756764992074107
369.0,1.5787220084805917
370.0,1.0230365106653
371.0,2.0362973279132257
372.0,2.578955152651542
373.0,2.552922360912968
374.0,3.0869869833285253
375.0,3.565807811856511
376.0,3.612655997168095
377.0,4.1985605610870325
378.0,5.291613826301196
379.0,6.095270221110476
380.0,7.7362842131338025
381.0,8.448029046566829
382.0,8.976971632798753
383.0,9.724207517915694
384.0,10.139623584525209
385.0,9.458089062775503
386.0,9.42897515252706
387.0,9.739527930341279
388.0,10.484453622913945
389.0,12.4039575650299
390.0,13.913197863617485
391.0,15.897991185872039
392.0,18.044098381646062
393.0,20.015943457090863
394.0,21.725436514855016
395.0,22.03330579669197
396.0,22.448498074632298
397.0,21.201833715668492
398.0,18.001974299389218
399.0,14.548250578440731
400.0,10.428348713711463
401.0,8.035230192150966
402.0,6.5077052444990615
403.0,5.098961809354801
404.0,3.976417406711336
405.0,3.2659434363683806
406.0,2.364092527084782
407.0,2.1647386291220823
408.0,2.7272968394403496
409.0,2.6795481681174373
410.0,2.3127403573653447
411.0,2.013508010927275
412.0,2.261727906315625
413.0,2.6315197834445954
414.0,2.18774944364376
415.0,2.4217663236760627
416.0,2.5312600420229447
417.0,2.6808934211780695
418.0,2.852930908678383
419.0,2.7160512124022786
420.0,2.4568552180424206
421.0,2.779581350369064
422.0,2.742789318076419
423.0,2.1807958034035813
424.0,2.0441874026395337
425.0,1.9014632189011174
426.0,1.2084639682233531
427.0,1.3016237961135126
428.0,1.9663674173157282
429.0,1.7978346828441878
430.0,1.7580587710160638
431.0,1.9466921718992867
432.0,2.5774942892850787
433.0,3.209301277480512
434.0,3.365647344015241
435.0,4.913707290308471
436.0,5.261132813087013
437.0,5.930607545266227
438.0,6.857782283957587
439.0,7.220597839349098
440.0,9.013673725857995
441.0,9.401576752227701
442.0,10.545191412257244
443.0,11.949021709222116
444.0,12.053582597940599
445.0,11.32257396867702
446.0,11.337619968340032
447.0,10.178454279897378
448.0,8.732664271592721
449.0,8.039042219433647
450.0,6.657060114340614
451.0,4.587433897598173
452.0,3.6423778720075033
453.0,2.853067527999557
454.0,1.6785401811830807
455.0,1.889451139778862
456.0,2.003917090949559
457.0,1.314470824252709
458.0,0.8037057859020427
459.0,0.851384807288409
460.0,0.6837202894408891
461.0,0.9215529885923046
462.0,0.5601252915119175
463.0,0.5374392349754026
464.0,0.7541362470469445
465.0,0.2795464950137483
466.0,0.4784458707659558
467.0,0.33981077239798957
468.0,0.5905926651943632
469.0,0.13497553647170857
470.0,0.3182656592298603
471.0,0.12793424381832844
472.0,0.1555171500989429
473.0,0.31217498226119367
474.0,0.11128788361097894
475.0,0.45408125590761605
476.0,0.41851526650305304
477.0,0.8156903604252576
478.0,0.9113486383774092
479.0,0.7560853454668397
480.0,0.5849988546355059
481.0,1.0767284645272888
482.0,1.0000396979361599
483.0,1.265232277919086
484.0,1.6042611991692042
485.0,1.7033646964670845
486.0,1.6018776431338668
487.0,2.443606299854416
488.0,2.1688646758364074
489.0,2.1789738756587633
490.0,2.2749415066827745
491.0,1.7359444340677759
492.0,2.358498178808358
493.0,2.1528298765620493
494.0,2.1540335808156126
495.0,2.6826720762936853
496.0,3.2377336380437134
497.0,3.236581133789517
498.0,3.2261325669864314
499.0,3.6524328288009595
500.0,4.238648729074062
501.0,4.421051695684251
502.0,3.968463009867614
503.0,4.498660037143918
504.0,4.818852493051061
505.0,5.304367244671758
506.0,5.635505440241835
507.0,5.705732096519397
508.0,6.160644877529269
509.0,6.554452352799836
510.0,6.5239697085333725
511.0,6.8112922286181385
512.0,7.636604200811569
513.0,7.866799511745525
514.0,8.494242818836554
515.0,9.427396353094114
516.0,10.152879277780931
517.0,10.786257257351428
518.0,11.768876921731037
519.0,12.36917653999378
520.0,13.83705910139359
521.0,14.976961990068151
522.0,16.11777818667638
523.0,17.596290831853658
524.0,18.03242602041148
525.0,19.401822850004496
526.0,19.119136154622993
527.0,18.52951966111187
528.0,18.24143506747215
529.0,16.965685384042484
530.0,15.033039820628975
531.0,13.454971163197431
532.0,11.606160592121691
533.0,10.01848558284169
534.0,9.182550714049206
535.0,7.442249951357194
536.0,6.976450129229391
537.0,6.308180000257348
538.0,5.293579869161478
539.0,4.51814370257356
540.0,4.4935124124542645
541.0,3.259143696455192
542.0,3.0346432711701525
543.0,2.652552364426872
544.0,2.1263720308902183
545.0,2.1146926083739035
546.0,1.9109608026755438
547.0,1.3661313177311425
548.0,1.1956615787402436
549.0,1.0436459542594656
550.0,0.6452823352166749
551.0,0.14802132826325556
552.0,0.10647519248912769
553.0,0.32425396474925305
554.0,0.19159367496624014
555.0,0.3269121782602813
556.0,0.08088229401821459
557.0,0.41389541878881564
558.0,0.13116920000393414
559.0,0.31758670170819736
560.0,0.24259866816228332
561.0,0.1403322690863352
562.0,0.8528736020356602
563.0,0.10684984958908375
564.0,0.3914256292956347
565.0,0.5808955825020387
566.0,0.2783932598149425
567.0,0.04479050872888247
568.0,0.2092902787003728
569.0,0.33039290698365986
570.0,0.3650682973403836
571.0,0.1335345804330489
572.0,0.06329477657516626
573.0,0.11387123215457731
574.0,0.0013843673214421481
575.0,0.5764982365304994
576.0,0.577418017361051
577.0,0.8823542568656927
578.0,1.8802208218144143
579.0,2.872760391852139
580.0,3.0428467367829772
581.0,3.229785362349422
582.0,3.5515683672154745
583.0,3.628527201743326
584.0,3.877216107821793
585.0,5.410402908508915
586.0,4.902501817298204
587.0,5.503663933389513
588.0,5.722801519495324
589.0,5.431885454779499
590.0,5.569482692796808
591.0,5.686395176457212
592.0,6.312753433462957
593.0,6.407540712289819
594.0,6.336224729183242
595.0,6.5045410147378115
596.0,6.728993723645065
597.0,6.5144133657314365
598.0,5.5276210068471485
599.0,5.233910416662464
600.0,5.228769487236256
601.0,4.982890285758648
602.0,4.758684073611593
603.0,4.5164330069056176
604.0,4.840472010212172
605.0,4.788795949945137
606.0,4.469627478097536
607.0,4.3606100072647624
608.0,4.329859327185143
609.0,3.9638855129722743
610.0,3.1029278279267705
611.0,3.337371437053528
612.0,4.219318455109812
613.0,4.524330420627401
614.0,4.362643850295171
615.0,4.662145778478451
616.0,4.2378405452682815
617.0,4.160193830629774
618.0,4.567458653058687
619.0,4.618514431677998
620.0,4.370273780257918
621.0,4.495285156413162
622.0,4.021119053767846
623.0,3.6529048630406917
624.0,3.395978675699918
625.0,2.5058875935527234
626.0,1.8319638001313663
627.0,1.496100025609944
628.0,1.208119421691122
629.0,0.6968863749347118
630.0,0.30118132201280146
631.0,0.6996449417453308
632.0,1.4495858169799223
633.0,1.7969076974439928
634.0,1.881234678307589
635.0,1.8248028552147804
636.0,1.9967278821023096
637.0,2.795012762743977
638.0,2.714029258812401
639.0,2.714123769499032
640.0,2.5371760589149495
641.0,2.9740810007959615
642.0,3.8433330851485397
643.0,3.795432841649917
644.0,3.879407655318423
645.0,3.791432058525917
646.0,3.702250846572679
647.0,3.4854998776672406
648.0,3.175910651156291
649.0,3.1602825789109827
650.0,3.434821955032152
651.0,3.267270375776386
652.0,3.0603522888617745
653.0,3.446303182226541
654.0,4.040646126094889
655.0,4.0001823409104675
656.0,5.177325124675794
657.0,5.369976432743471
658.0,5.949988149061926
659.0,7.2523541979212816
660.0,8.601208800300235
661.0,9.236122451565976
662.0,10.785892308331185
663.0,13.494879669088961
664.0,15.465094816682635
665.0,17.06889635028589
666.0,19.33534886292752
667.0,22.477296033659265
668.0,25.619640532286763
669.0,29.51763693818743
670.0,33.55819651301368
671.0,38.65459503031614
672.0,45.32481725379553
673.0,52.99673022463771
674.0,61.11478037064294
675.0,70.19151958441807
676.0,80.79734998192325
677.0,93.40354009217327
678.0,108.73660592163138
679.0,127.2605030353196
680.0,147.83246883807527
681.0,170.55570529892452
682.0,194.78866150128437
683.0,214.59754897662705
684.0,221.94406952136396
685.0,211.8958032375716
686.0,186.01241911703414
687.0,152.2597250961281
688.0,121.11461882075687
689.0,95.6630560367806
690.0,75.87507307617817
691.0,61.11665406594989
692.0,50.98881391375758
693.0,41.70810039832658
694.0,34.79434809249909
695.0,30.017800856106103
696.0,25.91606749438594
697.0,22.24904438069875
698.0,20.164548876944295
699.0,17.214306557699437
700.0,15.20498738023193
701.0,13.252694850280955
702.0,11.812682651757607
703.0,10.507790835585352
704.0,8.649829375507482
705.0,8.434818323889916
706.0,7.133028504891036
707.0,6.278834763769242
708.0,5.917299685504024
709.0,5.438255724612842
710.0,4.382610973273821
711.0,3.15386337060469
712.0,3.210570684183181
713.0,2.7430987820279977
714.0,2.1976365427182065
715.0,1.7769810835765276
716.0,1.306152233474978
717.0,0.7807547811837753
718.0,0.9091574067760436
719.0,0.633248110374334
720.0,0.21156158113479745
721.0,0.3935960426824
722.0,0.06333093282587361
723.0,0.0578312844062851
724.0,0.1071344457436245
725.0,0.32613297238505007
726.0,0.5002644981682939
727.0,0.43142142837677505
728.0,0.14273509428706843
729.0,0.2006174051390516
730.0,0.32144703336963976
731.0,0.3392371072790523
732.0,0.20302266162529378
733.0,0.10104431410234622
734.0,0.04019922776286335
735.0,0.39732632329026485
736.0,0.5827775693829789
737.0,0.24277624097540915
738.0,0.45303333530455686
739.0,0.13805559897203298
740.0,0.49243942894702597
741.0,0.30115951339721
742.0,0.37494423016523687
743.0,1.093210834921761
744.0,0.4323856272241716
745.0,0.815026576241098
746.0,1.1241924542448583
747.0,0.7489049364443802
748.0,0.6364119575601043
749.0,1.5032225748585932
750.0,1.2533352832648177
751.0,1.5039744283141903
752.0,1.9411618555269607
753.0,2.190932798212049
754.0,2.406761070448223
755.0,2.6995617379689696
756.0,2.6972401146315645
757.0,2.2374721583508843
758.0,3.082670601771614
759.0,4.070641471652594
760.0,5.090160863804174
761.0,5.299216173970104
762.0,4.554617302347315
763.0,5.637323740081554
764.0,6.366043943084223
765.0,6.844529093009622
766.0,7.309502914056887
767.0,7.5111732190380485
768.0,7.372354213003398
769.0,7.155455127437897
770.0,6.86984345323439
771.0,6.407535204899313
772.0,6.595201693274299
773.0,5.923321348637165
774.0,5.127568461486754
775.0,4.864042229839597
776.0,3.8535596985024365
777.0,3.9221782511608367
778.0,3.8664077401647607
779.0,3.480007389835319
780.0,2.8044925269208867
781.0,2.467009068059677
782.0,2.7283753383573854
783.0,2.4366442140099798
784.0,1.6753170105082231
785.0,0.9869516837908692
786.0,1.0105972863051156
787.0,1.3284803575583668
788.0,1.2603810565073703
789.0,0.9326702751162697
790.0,1.3297968602504389
791.0,0.9542194329310658
792.0,0.449171521176066
793.0,0.6018273522121836
794.0,0.9811192092462989
795.0,1.03127054433771
796.0,0.6580734096791699
797.0,0.057637170303912716
798.0,0.03312540093352025
799.0,0.6992848074837037
800.0,0.7014796334190161
801.0,0.3545329669082056
802.0,0.32581250206920304
803.0,0.299942882563075
804.0,0.04985751125311567
805.0,0.2805041997891047
806.0,0.3691786387465981
807.0,0.5377409553719724
808.0,0.4800252258831662
809.0,0.34668564547961717
810.0,0.7053546619844869
811.0,0.6153723687851202
812.0,0.6349043560012767
813.0,0.5477105470171711
814.0,0.5133755830271287
815.0,0.3786305236830078
816.0,0.32177200164976655
817.0,0.7917310507959334
818.0,0.988882624683561
819.0,1.204593967629382
820.0,0.838157118692079
821.0,0.6704734051861395
822.0,0.7214560157138048
823.0,0.8872420102866417
824.0,1.2112914804671007
825.0,1.01793237826215
826.0,0.46263598851666743
827.0,0.18414575006612172
828.0,0.16745733167703294
829.0,0.20661552280814174
830.0,0.11942203265175465
831.0,0.054660063237127104
832.0,0.16234029176100037
833.0,0.46679351622079573
834.0,-0.0047642698934254445
835.0,0.6724632154694011
836.0,0.9831719948297926
837.0,0.3102875131157091
838.0,0.11078421857064234
839.0,0.04252826814886943
840.0,0.07759528239850484
841.0,0.2955442398131698
842.0,0.048675175043332
843.0,0.054944589170554926
844.0,0.3638950852051673
845.0,0.35962429963991305
846.0,0.11358797608594048
847.0,0.9358085522894738
848.0,0.17242115770994854
849.0,0.47560692770534463
850.0,0.15575943482427
851.0,0.4289129585985995
852.0,0.23134281208624963
853.0,0.5757802552358003
854.0,0.4623906725743696
855.0,0.8154201705445405
856.0,0.8378376178309401
857.0,0.7348359817064105
858.0,0.7950972007063943
859.0,1.203441749201824
860.0,1.6427905683894677
861.0,0.9821424793080341
862.0,0.5169552839597036
863.0,0.2896475759768423
864.0,0.051861256028505436
865.0,0.18971735145825286
866.0,0.7113512514286343
867.0,0.5971371485201307
868.0,0.6411810215063205
869.0,0.302399879697316
870.0,0.20304956942051736
871.0,0.5782555507916878
872.0,0.4799529666851005
873.0,0.429660379900943
874.0,0.7732273615239273
875.0,0.765977656825484
876.0,1.3607133044678994
877.0,0.5131073335332593
878.0,0.7951966780836257
879.0,1.3750078131257433
880.0,1.3321268431769038
881.0,1.0649048300845743
882.0,1.3080665088100194
883.0,1.6286189125376065
884.0,1.469507142358356
885.0,2.182892349883663
886.0,2.372879436642932
887.0,2.0769535210319257
888.0,1.80188430805515
889.0,1.8793765101227293
890.0,2.3729847935107595
891.0,2.820789171907512
892.0,2.6819325373295957
893.0,2.6869857590870834
894.0,3.131499268984983
895.0,3.589387001995335
896.0,3.935026461348701
897.0,4.0894932305580625
898.0,3.8325391998720604
899.0,5.465806496472042
900.0,6.35895870796784
901.0,6.02070227027452
902.0,6.35678461024753
903.0,7.453707174960011
904.0,8.907142927757452
905.0,10.26582185799973
906.0,10.504700238923837
907.0,11.743874988921563
908.0,12.873028375065289
909.0,14.480684476141358
910.0,15.524666647236925
911.0,16.308635773270424
912.0,17.61220203899457
913.0,19.390037408648706
914.0,20.945390573366847
915.0,20.536395347424783
916.0,20.597702295482204
917.0,21.148348980717078
918.0,21.047254281602648
919.0,20.182637392275353
920.0,19.058085911654892
921.0,17.587054241311964
922.0,15.674728046178325
923.0,14.327315962212465
924.0,13.147571077695584
925.0,11.407520377587726
926.0,9.891339937289635
927.0,9.229870009144024
928.0,8.736572645852613
929.0,7.456088986337776
930.0,7.103760397718553
931.0,6.235556414627361
932.0,6.162906942333577
933.0,5.208844294972179
934.0,4.952233904689851
935.0,5.190266870889147
936.0,4.72731668787583
937.0,3.8791886837226706
938.0,2.8907816217880993
939.0,2.705916497529521
940.0,2.887915365279294
941.0,2.4824230867185
942.0,2.146101025610867
943.0,1.758746366224073
944.0,1.1996949665318752
945.0,0.987944971373796
946.0,0.7111697180892111
947.0,1.1166740622516844
948.0,1.190504018336831
949.0,1.3476485762706936
950.0,1.0086601447188157
951.0,0.38616741629489915
952.0,0.19371906907190328
953.0,0.4498896383377978
954.0,0.3565258835629165
955.0,0.8155965183552598
956.0,0.11063081343045512
957.0,0.08986518032216911
958.0,0.055004571135345105
959.0,0.2048398646310016
960.0,0.22180048637763952
961.0,0.39929660154598906
962.0,1.1920046304907466
963.0,1.0385193051889248
964.0,0.8179376137452491
965.0,0.6623648908286156
966.0,0.37927000724203414
967.0,0.26394622469854395
968.0,0.2130101967723588
969.0,0.10429993872906272
970.0,0.24111543580714975
971.0,0.2740917100659052
972.0,0.4448432421590874
973.0,1.0073559118696602
974.0,0.29836233137587587
975.0,0.5073229919528759
976.0,0.04098758871562131
977.0,0.2280635204276639
978.0,0.2693932960408883
979.0,-0.004179617740516214
980.0,0.7702645669668005
981.0,0.5199236479680215
982.0,1.2468227311983928
983.0,1.1738676620507138
984.0,0.9561957691900855
985.0,1.1718115044554351
986.0,1.7435979088204483
987.0,2.9993036081214357
988.0,3.4042972466224573
989.0,4.082798527389505
990.0,4.260479536325694
991.0,5.518400016308623
992.0,6.494193405790341
993.0,7.14323770191417
994.0,8.321488915486249
995.0,9.879937845684125
996.0,10.861461774776528
997.0,11.813283275002876
998.0,14.038153035938043
999.0,15.565620384873556
1000.0,16.9129447924771
1001.0,18.83437405499489
1002.0,20.365484955956074
1003.0,21.561461862810983
1004.0,23.721290625234673
1005.0,25.155713512170784
1006.0,25.80280198956935
1007.0,27.04400452809576
1008.0,28.348068577621834
1009.0,28.53825484018982
1010.0,28.229270324575346
1011.0,27.233475518623987
1012.0,24.99192049324839
1013.0,22.485088702692867
1014.0,20.661193218633734
1015.0,17.593093977827458
1016.0,15.028487180501179
1017.0,13.370004153667427
1018.0,12.008629495256246
1019.0,10.104465803231529
1020.0,8.192888252493931
1021.0,7.373340958300666
1022.0,7.211986411220408
1023.0,5.922276664799851
1024.0,4.565586802214231
1025.0,3.511174934399599
1026.0,3.9455547325356335
1027.0,3.544149411734295
1028.0,2.8468010444729863
1029.0,2.4473984731366145
1030.0,2.164043254404181
1031.0,2.5471291780489045
1032.0,3.0145954177825423
1033.0,2.742126080723537
1034.0,2.3793151168075983
1035.0,2.2282841394929513
1036.0,3.19298402858357
1037.0,3.9375578530343858
1038.0,4.325272595064608
1039.0,4.754174898894621
1040.0,5.066145216601576
1041.0,5.989864184471142
1042.0,6.877921164861701
1043.0,7.108595045087127
1044.0,8.465830444640204
1045.0,9.677953093188112
1046.0,10.700762061608746
1047.0,12.793629875740017
1048.0,15.092723829255112
1049.0,17.165097454883615
1050.0,21.439252997566822
1051.0,22.91805864203372
1052.0,26.078847631464868
1053.0,30.852049788905234
1054.0,35.43634187577086
1055.0,41.835213182537416
1056.0,48.49427988422845
1057.0,55.8004771493063
1058.0,65.2380951281313
1059.0,75.19472409616135
1060.0,86.2379902182153
1061.0,98.93917007524485
1062.0,112.74825359843857
1063.0,124.06677652686483
1064.0,137.24208768398478
1065.0,148.20070074841607
1066.0,155.25312736276987
1067.0,158.8471308221469
1068.0,156.209558657259
1069.0,151.97115355304922
1070.0,142.6959811504816
1071.0,131.16617639223912
1072.0,117.90725465784843
1073.0,104.91150374935741
1074.0,92.76990734604327
1075.0,83.80930013495514
1076.0,75.42623807534696
1077.0,65.94416391049936
1078.0,58.71785694325882
1079.0,52.74240123261834
1080.0,46.42102069199286
1081.0,42.47237278954826
1082.0,37.86190104422066
1083.0,33.603358992485816
1084.0,30.19124285294408
1085.0,27.38746840859853
1086.0,25.111090927790066
1087.0,22.63186500708644
1088.0,19.49402610447425
1089.0,17.811833442680154
1090.0,15.348629483512301
1091.0,13.275240173092643
1092.0,12.107880071466983
1093.0,10.659018617592835
1094.0,9.665085919074281
1095.0,8.689075282217182
1096.0,7.460839671885438
1097.0,6.25389141938691
1098.0,5.28060359730596
1099.0,5.371363355137236
1100.0,4.419810206476237
1101.0,3.459877668112311
1102.0,2.866965853555108
1103.0,2.707838451331708
1104.0,2.37804155620847
1105.0,2.4371192806505095
1106.0,2.3775974641901345
1107.0,1.5738889647348848
1108.0,1.0423774891593445
1109.0,1.346122646926415
1110.0,1.462527913172361
1111.0,1.7677915958849697
1112.0,1.0558176034733853
1113.0,1.2317741688903192
1114.0,1.2230289041161158
1115.0,0.9624869504112646
1116.0,0.9533041500428041
1117.0,1.0269475527376783
1118.0,0.601807053331159
1119.0,0.6649409000929689
1120.0,3.38658469317271
1121.0,0.6616553414120084
1122.0,2.2671818473207046
1123.0,0.8476020936997974
1124.0,0.4775808714383245
1125.0,0.28782351289116065
1126.0,0.1365746458252881
1127.0,0.07656566437652702
1128.0,0.16375516779641086
1129.0,0.008229830049223402
1130.0,0.5728818503784493
1131.0,1.1194970777231779
1132.0,0.7738256334378
1133.0,1.6032161846176616
1134.0,1.1671147600055471
1135.0,1.2111510950977553
1136.0,1.3145132874475267
1137.0,1.415659456839328
1138.0,2.0762656590604456
1139.0,2.515017952919719
1140.0,1.7652049574244923
1141.0,1.5631179833632145
1142.0,1.3414138161280131
1143.0,1.4250012543259394
1144.0,0.5480911351361202
1145.0,2.4467211652714407
1146.0,2.012179560604683
1147.0,1.1043977698339067
1148.0,0.9001978000956851
1149.0,0.7020281946936341
1150.0,0.39975341582284246
1151.0,0.24559169173991674
1152.0,0.3726772637339401
1153.0,0.3719715976190416
1154.0,0.25784063036468857
1155.0,1.1210156132724967
1156.0,0.8207013969370887
1157.0,1.0956483277058855
1158.0,0.2672596605033923
1159.0,0.6255302989619491
1160.0,0.17254621942073878
1161.0,0.21593998854005764
1162.0,0.2873179293616798
1163.0,0.11407141770087265
1164.0,0.2586233017121075
1165.0,1.0754916712733862
1166.0,0.4605318003512702
1167.0,0.03202300098730161
1168.0,0.007557310212123181
1169.0,0.3671992171321338
1170.0,0.9095452941352836
1171.0,0.5278859578844993
1172.0,0.08143999352466612
1173.0,0.6509403971585487
1174.0,0.5792298321300507
1175.0,1.0704528509104052
1176.0,1.4124803036214026
1177.0,0.5972607791005633
1178.0,0.9565954201933368
1179.0,1.598250487385745
1180.0,1.925331787211825
1181.0,1.7288709303286944
1182.0,1.4821254414329448
1183.0,1.7206575157476391
1184.0,2.0353006361979187
1185.0,1.9838609219290897
1186.0,2.394568407661322
1187.0,2.483993263026342
1188.0,3.495339150449361
1189.0,3.1892033475308628
1190.0,2.97454910484787
1191.0,3.2776029502311985
1192.0,3.065763793599309
1193.0,2.8318057886487145
1194.0,2.8904899916234474
1195.0,3.005662137147692
1196.0,3.231759627301237
1197.0,3.3175841199281835
1198.0,2.3611023451325255
1199.0,2.504062937097239
1200.0,3.008361260859591
1201.0,3.3145864723697827
1202.0,3.047939613280255
1203.0,3.1014361277657705
1204.0,3.0985665675810807
1205.0,3.1015474635467144
1206.0,3.398015502039052
1207.0,3.7050427442766916
1208.0,3.6009864779035867
1209.0,3.387159898192696
1210.0,3.575722776372574
1211.0,3.465420203671125
1212.0,4.418234688257561
1213.0,3.615796518112022
1214.0,3.512716052358256
1215.0,3.7292026900991897
1216.0,3.6662186355889244
1217.0,3.5267582330133016
1218.0,3.422971182491786
1219.0,4.069776458525633
1220.0,4.989267345444876
1221.0,4.973743790415712
1222.0,4.480726578161216
1223.0,4.4754404012200695
1224.0,5.464145651135075
1225.0,5.723247733459856
1226.0,4.900818599110913
1227.0,4.356170003056502
1228.0,4.894736716176466
1229.0,3.9678015578071357
1230.0,2.949574650495067
1231.0,3.653871866989036
1232.0,4.25075981535109
1233.0,3.616988193009924
1234.0,3.204089630480477
1235.0,3.335814491596563
1236.0,3.280932817918014
1237.0,3.2033147644112336
1238.0,3.602292329375102
1239.0,2.489305550779515
1240.0,3.4143265774375275
1241.0,3.186089362168109
1242.0,3.878069720372588
1243.0,3.2010294024286243
1244.0,2.169789741052179
1245.0,1.9463681026454849
1246.0,2.0102789575376976
1247.0,1.6572609114671422
1248.0,0.8815682293251774
1249.0,1.2240549452598124
1250.0,0.40005979615008463
1251.0,0.4458717536926836
1252.0,0.1511057980805272
1253.0,0.9524109747023685
1254.0,1.1737701357753985
1255.0,0.660167044184897
1256.0,0.18628754207235976
1257.0,0.5047718690799313
1258.0,0.8424826804404931
1259.0,0.7930716224177184
1260.0,0.4776007423829334
1261.0,0.11441960610166002
1262.0,0.31401770092170045
1263.0,0.353821
1264.0,1.0131188062729015
1265.0,0.24254801219245484
1266.0,0.21814589312803184
1267.0,1.4005790890264442
1268.0,1.4454379021522157
1269.0,0.22998038132513135
1270.0,0.5778515601850742
1271.0,0.3216773119311349
1272.0,0.21460760902363446
1273.0,1.2751929038651775
1274.0,1.770919003212001
1275.0,1.0188828291822165
1276.0,0.8143193791730595
1277.0,2.080847520394011
1278.0,1.7925921164015395
1279.0,1.0597940343777583
1280.0,0.9375177191211569
1281.0,0.9484251915430864
1282.0,1.3647078330255282
1283.0,1.1021990058838145
1284.0,2.4549722498286073
1285.0,1.6464511504206225
1286.0,1.194116565526911
1287.0,1.0820060210971394
1288.0,0.5910010967699901
1289.0,0.7456470620999304
1290.0,0.9555720713279551
1291.0,1.189179338991228
1292.0,1.3839409111719394
1293.0,0.025677615371296408
1294.0,0.5610029145198553
1295.0,1.0764502467740784
1296.0,0.29364133999497993
1297.0,-0.016592540076414728
1298.0,1.4450744017371735
1299.0,0.7863224305571807
1300.0,0.46995454490535676
1301.0,0.21604014697375715
1302.0,0.2996477416490241
1303.0,0.014911963420121807
1304.0,0.0
1305.0,0.0
1306.0,0.0
1307.0,0.0
1308.0,0.0
1309.0,0.0
1310.0,0.0
1311.0,0.0
1312.0,0.0
1313.0,0.0
1314.0,0.0
1315.0,0.0
1316.0,0.0
1317.0,0.0
1318.0,0.0
1319.0,0.0
1320.0,0.0
1321.0,0.0
1322.0,0.0
1323.0,0.0
1324.0,0.0
1325.0,0.0
1326.0,0.0
1327.0,0.0
1328.0,0.0
1329.0,0.0
1330.0,0.0
1331.0,0.0
1332.0,0.0
1333.0,0.0
1334.0,0.0
1335.0,0.0
1336.0,0.0
1337.0,0.0
1338.0,0.0
1339.0,0.0
1340.0,0.0
1341.0,0.0
1342.0,0.0
1343.0,0.0
1344.0,0.0
1345.0,0.0
1346.0,0.0
1347.0,0.0
1348.0,0.0
1349.0,0.0
1350.0,0.0
1351.0,0.0
1352.0,0.0
1353.0,0.0
1354.0,0.0
1355.0,0.0
1356.0,0.0
1357.0,0.0
1358.0,0.0
1359.0,0.0
1360.0,0.0
1361.0,0.0
1362.0,0.0
1363.0,0.0
1364.0,0.0
1365.0,0.0
1366.0,0.0
1367.0,0.0
1368.0,0.0
1369.0,0.0
1370.0,0.0
1371.0,0.0
1372.0,0.0
1373.0,0.0
1374.0,0.0
1375.0,0.0
1376.0,0.0
1377.0,0.0
1378.0,0.0
1379.0,0.0
1380.0,0.0
1381.0,0.0
1382.0,0.0
1383.0,0.0
1384.0,0.0
1385.0,0.0
1386.0,0.0
1387.0,0.0
1388.0,0.0
1389.0,0.0
1390.0,0.0
1391.0,0.0
1392.0,0.0
1393.0,0.0
1394.0,0.0
1395.0,0.0
1396.0,0.0
1397.0,0.0
1398.0,0.0
1399.0,0.0
1400.0,0.0
1401.0,0.0
1402.0,0.0
1403.0,0.0
1404.0,0.0
1405.0,0.0
1406.0,0.0
1407.0,0.0
1408.0,0.0
1409.0,0.0
1410.0,0.0
1411.0,0.0
1412.0,0.0
1413.0,0.0
1414.0,0.0
1415.0,0.0
1416.0,0.0
1417.0,0.0
1418.0,0.0
1419.0,0.0
1420.0,0.0
1421.0,0.0
1422.0,0.0
1423.0,0.0
1424.0,0.0
1425.0,0.0
1426.0,0.0
1427.0,0.0
1428.0,0.0
1429.0,0.0
1430.0,0.0
1431.0,0.0
1432.0,0.0
1433.0,0.0
1434.0,0.0
1435.0,0.0
1436.0,0.0
1437.0,0.0
1438.0,0.0
1439.0,0.0
1440.0,0.0
1441.0,0.0
1442.0,0.0
1443.0,0.0
1444.0,0.0
1445.0,0.0
1446.0,0.0
1447.0,0.0
1448.0,0.0
1449.0,0.0
1450.0,0.0
1451.0,0.0
1452.0,0.0
1453.0,0.0
1454.0,0.0
1455.0,0.0
1456.0,0.0
1457.0,0.0
1458.0,0.0
1459.0,0.0
1460.0,0.0
1461.0,0.0
1462.0,0.0
1463.0,0.0
1464.0,0.0
1465.0,0.0
1466.0,0.0
1467.0,0.0
1468.0,0.0
1469.0,0.0
1470.0,0.0
1471.0,0.0
1472.0,0.0
1473.0,0.0
1474.0,0.0
1475.0,0.0
1476.0,0.0
1477.0,0.0
1478.0,0.0
1479.0,0.0
1480.0,0.0
1481.0,0.0
1482.0,0.0
1483.0,0.0
1484.0,0.0
1485.0,0.0
1486.0,0.0
1487.0,0.0
1488.0,0.0
1489.0,0.0
1490.0,0.0
1491.0,0.0
1492.0,0.0
1493.0,0.0
1494.0,0.0
1495.0,0.0
1496.0,0.0
1497.0,0.0
1498.0,0.0
1499.0,0.0
1500.0,0.0
1501.0,0.0
1502.0,0.0
1503.0,0.0
1504.0,0.0
1505.0,0.0
1506.0,0.0
1507.0,0.0
1508.0,0.0
1509.0,0.0
1510.0,0.0
1511.0,0.0
1512.0,0.0
1513.0,0.0
1514.0,0.0
1515.0,0.0
1516.0,0.0
1517.0,0.0
1518.0,0.0
1519.0,0.0
1520.0,0.0
1521.0,0.0
1522.0,0.0
1523.0,0.0
1524.0,0.0
1525.0,0.0
1526.0,0.0
1527.0,0.0
1528.0,0.0
1529.0,0.0
1530.0,0.0
1531.0,0.0
1532.0,0.0
1533.0,0.0
1534.0,0.0
1535.0,0.0
1536.0,0.0
1537.0,0.0
1538.0,0.0
1539.0,0.0
1540.0,0.0
1541.0,0.0
1542.0,0.0
1543.0,0.0
1544.0,0.0
1545.0,0.0
1546.0,0.0
1547.0,0.0
1548.0,0.0
1549.0,0.0
1550.0,0.0
1551.0,0.0
1552.0,0.0
1553.0,0.0
1554.0,0.0
1555.0,0.0
1556.0,0.0
1557.0,0.0
1558.0,0.0
1559.0,0.0
1560.0,0.0
1561.0,0.0
1562.0,0.0
1563.0,0.0
1564.0,0.0
1565.0,0.0
1566.0,0.0
1567.0,0.0
1568.0,0.0
1569.0,0.0
1570.0,0.0
1571.0,0.0
1572.0,0.0
1573.0,0.0
1574.0,0.0
1575.0,0.0
1576.0,0.0
1577.0,0.0
1578.0,0.0
1579.0,0.0
1580.0,0.0
1581.0,0.0
1582.0,0.0
1583.0,0.0
1584.0,0.0
1585.0,0.0
1586.0,0.0
1587.0,0.0
1588.0,0.0
1589.0,0.0
1590.0,0.0
1591.0,0.0
1592.0,0.0
1593.0,0.0
1594.0,0.0
1595.0,0.0
1596.0,0.0
1597.0,0.0
1598.0,0.0
1599.0,0.0
