0.0,0.0
1.0,0.0
2.0,0.0
3.0,0.0
4.0,0.0
5.0,0.0
6.0,0.0
7.0,0.0
8.0,0.0
9.0,0.0
10.0,0.0
11.0,0.0
12.0,0.0
13.0,0.0
14.0,0.0
15.0,0.0
16.0,0.0
17.0,0.0
18.0,0.0
19.0,0.0
20.0,0.0
21.0,0.0
22.0,0.0
23.0,0.0
24.0,0.0
25.0,0.0
26.0,0.0
27.0,0.0
28.0,0.0
29.0,0.0
30.0,0.0
31.0,0.0
32.0,0.0
33.0,0.0
34.0,0.0
35.0,0.0
36.0,0.0
37.0,0.0
38.0,0.0
39.0,0.0
40.0,0.0
41.0,0.0
42.0,0.0
43.0,0.0
44.0,0.0
45.0,0.0
46.0,0.0
47.0,0.0
48.0,0.0
49.0,0.0
50.0,0.0
51.0,0.0
52.0,0.0
53.0,0.0
54.0,0.0
55.0,0.0
56.0,0.0
57.0,0.0
58.0,0.0
59.0,0.0
60.0,0.0
61.0,0.0
62.0,0.0
63.0,0.0
64.0,0.0
65.0,0.0
66.0,0.0
67.0,0.0
68.0,0.0
69.0,0.0
70.0,0.0
71.0,0.0
72.0,0.0
73.0,0.0
74.0,0.0
75.0,0.0
76.0,0.0
77.0,0.0
78.0,0.0
79.0,0.0
80.0,0.0
81.0,0.0
82.0,0.0
83.0,0.0
84.0,0.0
85.0,0.0
86.0,0.0
87.0,0.0
88.0,0.0
89.0,0.0
90.0,0.0
91.0,0.0
92.0,0.0
93.0,0.0
94.0,0.0
95.0,0.0
96.0,0.0
97.0,0.0
98.0,0.0
99.0,0.0
100.0,0.0
101.0,0.0
102.0,0.0
103.0,0.0
104.0,0.0
105.0,0.0
106.0,0.0
107.0,0.0
108.0,0.0
109.0,0.0
110.0,0.0
111.0,0.0
112.0,0.0
113.0,0.0
114.0,0.0
115.0,0.0
116.0,0.0
117.0,0.0
118.0,0.0
119.0,0.0
120.0,0.0
121.0,0.0
122.0,0.0
123.0,0.0
124.0,0.0
125.0,0.0
126.0,0.0
127.0,0.0
128.0,-0.04406291972534072
129.0,0.7701533036733829
130.0,0.07702364601291888
131.0,5.228518769112446
132.0,8.875660037815681
133.0,10.374485305688367
134.0,11.180643458923322
135.0,13.289208232259757
136.0,14.766784340195418
137.0,15.0353081722867
138.0,14.798877511754535
139.0,15.649000547057852
140.0,14.676469657708656
141.0,12.621681844626776
142.0,10.445073030029308
143.0,8.797932584527027
144.0,7.134602683153785
145.0,6.427406066352126
146.0,5.948566723022883
147.0,4.572485216978597
148.0,4.9184959628973175
149.0,5.994293849506957
150.0,6.132670639449081
151.0,4.901144022767849
152.0,6.15662633758953
153.0,5.882600439622965
154.0,5.706641864051702
155.0,6.081750700236446
156.0,5.961417211913254
157.0,6.069956598835324
158.0,5.622115062451401
159.0,5.627126261209188
160.0,7.448973136530981
161.0,5.63310027082651
162.0,4.227292268183795
163.0,4.383688499526918
164.0,5.727438967275792
165.0,7.967879175353648
166.0,7.0005748291751955
167.0,6.394923861491318
168.0,7.761168428867459
169.0,9.850715365700527
170.0,10.011696530811241
171.0,11.020238883336031
172.0,12.071980292075875
173.0,11.105150458022914
174.0,10.819065863623052
175.0,10.561936674557394
176.0,9.913263713127396
177.0,9.36849928298436
178.0,10.441056972648049
179.0,10.30183003403562
180.0,9.98231805407329
181.0,9.76961782036698
182.0,9.035046058720564
183.0,8.039842678311135
184.0,8.704630472371663
185.0,8.824111426933142
186.0,6.7133638051608235
187.0,6.557336233481501
188.0,5.561717259863014
189.0,4.605161112741994
190.0,4.004538658404357
191.0,2.481143834496733
192.0,2.0956791141539868
193.0,1.9672724384303064
194.0,1.5477086721262006
195.0,0.8520367063331815
196.0,0.7422810241005473
197.0,0.43048927085089383
198.0,1.3565797541662243
199.0,1.1411579368647566
200.0,1.438652003341745
201.0,1.0781672451244662
202.0,0.813249415192548
203.0,0.8913167626613114
204.0,0.9662991573348643
205.0,0.9435503860811704
206.0,0.10305494269402185
207.0,0.10817079015872799
208.0,0.973585777202088
209.0,0.41872864619996475
210.0,0.240259001105232
211.0,0.07806350192680615
212.0,0.3247272576028227
213.0,1.1324454399143074
214.0,0.20291059176028084
215.0,0.7588197060162092
216.0,2.0477471239913947
217.0,2.5117014150187456
218.0,2.520826896862526
219.0,2.9845359439402612
220.0,3.6342273790984883
221.0,3.9836202535002254
222.0,3.4675832762250316
223.0,4.495799484743197
224.0,5.859056372137806
225.0,6.645933119108173
226.0,6.601756552491457
227.0,7.680032670593192
228.0,6.994865666487004
229.0,7.21813143588256
230.0,9.250343041256677
231.0,11.154547320995187
232.0,11.679736225694853
233.0,12.040908859511687
234.0,12.772733983530498
235.0,13.74885999903322
236.0,13.61561481953915
237.0,14.888921168500918
238.0,15.642654570326533
239.0,15.490827248316108
240.0,15.78990300386855
241.0,16.94989030042303
242.0,17.821966544596656
243.0,18.225334316609654
244.0,18.66576692724427
245.0,21.223239504014632
246.0,21.050755703834426
247.0,21.129708730538677
248.0,22.07685941455182
249.0,22.29731603747885
250.0,20.37305101139208
251.0,17.960409057845638
252.0,15.704743777618344
253.0,13.815999392638556
254.0,12.290342208372364
255.0,8.970222256537951
256.0,6.128383152254457
257.0,4.606618068777536
258.0,3.7397517688725044
259.0,2.7398484375711885
260.0,2.2798177670007567
261.0,1.766064341315952
262.0,0.9737611440168238
263.0,0.4453846168888071
264.0,1.8172656365306261
265.0,1.1975949495404858
266.0,0.29886832821380166
267.0,1.7889096092372456
268.0,0.3515839076685297
269.0,0.6013186828811121
270.0,1.45697580524848
271.0,1.946860664226459
272.0,2.071151372804305
273.0,1.8072069769037582
274.0,1.3258387070546227
275.0,1.234054196490264
276.0,1.8266009288735048
277.0,2.5187033564530372
278.0,2.879347220954964
279.0,3.6876758868055077
280.0,4.834399635463222
281.0,5.598082157938512
282.0,5.062247930666892
283.0,5.20193840981254
284.0,5.628415572037535
285.0,6.530494171681388
286.0,8.994145807831963
287.0,9.760988805729303
288.0,10.654109145720447
289.0,11.664229972247744
290.0,12.263531377132074
291.0,12.505227210637218
292.0,13.19237451587382
293.0,15.045064277604332
294.0,17.389964190664106
295.0,18.61873619600628
296.0,17.320155044321872
297.0,18.45977251981504
298.0,19.699422268897813
299.0,20.0337330565221
300.0,21.216483682415298
301.0,22.051385224237105
302.0,22.96532691043144
303.0,23.98661569095203
304.0,25.75833994494042
305.0,29.984301811248802
306.0,31.883688168124692
307.0,34.076944685938955
308.0,37.31931589759804
309.0,40.90214686545136
310.0,44.23073993403429
311.0,49.20038838834901
312.0,52.703424654251684
313.0,55.498802057519484
314.0,60.77986594895401
315.0,67.8719484925988
316.0,74.59202385995356
317.0,81.66807493496131
318.0,89.72032045542353
319.0,98.51022103319684
320.0,109.5738334630038
321.0,119.6049752314644
322.0,128.34834102677883
323.0,135.60895822798955
324.0,138.8811536663347
325.0,135.65049530104454
326.0,126.8620170539367
327.0,112.63019558653718
328.0,93.83130987950916
329.0,74.81592019373893
330.0,58.185306593153086
331.0,44.4919058620019
332.0,33.73599744336402
333.0,25.69110872669686
334.0,19.964996126788968
335.0,15.414136143516913
336.0,10.949335037604738
337.0,7.333135441708222
338.0,7.101698406853482
339.0,4.509733722821795
340.0,3.14615034720818
341.0,2.802912732279755
342.0,2.315616953412395
343.0,1.382543886702422
344.0,0.17496410736490722
345.0,0.8547961022869656
346.0,0.8636720568742885
347.0,0.17034563489117155
348.0,0.47224616467000724
349.0,0.10348271492214275
350.0,0.14101812747342918
351.0,0.0706003650669046
352.0,0.16314880525630202
353.0,1.451138085280949
354.0,0.7598844296365419
355.0,0.5946401722373278
356.0,0.8458608572917559
357.0,0.11991115602178094
358.0,0.09747470793816844
359.0,0.04931001471747179
360.0,0.052202681552143464
361.0,0.10732100016784923
362.0,0.09046546943429572
363.0,0.0363327051785296
364.0,0.6273050759202103
365.0,1.2828451827017018
366.0,1.5470050172953747
367.0,1.44481258905093
368.0,2.5323365520693906
369.0,3.1069557161043257
370.0,3.181607652836129
371.0,3.443394530639509
372.0,4.844169220724853
373.0,6.208661665480699
374.0,8.049854807684195
375.0,9.916764638540807
376.0,11.186811473289316
377.0,11.600154440967184
378.0,13.838813701987949
379.0,17.19377801540102
380.0,19.95316307546218
381.0,22.57165801423334
382.0,28.03913231964353
383.0,32.32810218274738
384.0,37.74051151478186
385.0,44.696210357564226
386.0,51.663574057278
387.0,56.19289820255266
388.0,62.56633766206493
389.0,70.85977639614867
390.0,79.45681635617713
391.0,88.23629420301772
392.0,99.61818681031531
393.0,110.96098214199071
394.0,122.71108831002498
395.0,135.85268458316017
396.0,149.76971433131817
397.0,161.46554375693154
398.0,175.1312157805908
399.0,182.72832865532357
400.0,184.8339506966717
401.0,181.19095144029208
402.0,164.02842059952508
403.0,144.96307396818648
404.0,124.30879924104036
405.0,103.04539649702484
406.0,83.31524042478387
407.0,67.79475053391025
408.0,55.06382816691665
409.0,46.00136951132987
410.0,38.69684025238138
411.0,31.654085785867643
412.0,26.079198680421246
413.0,24.010348532069735
414.0,21.54647416305174
415.0,18.917498322393183
416.0,17.09589303572297
417.0,16.120221318259414
418.0,13.96200290094079
419.0,12.820107008904802
420.0,12.735403104832528
421.0,12.581612807140418
422.0,11.314103961449266
423.0,12.41640667443487
424.0,11.145132640703478
425.0,9.87916706054658
426.0,9.817961266990823
427.0,8.986087516407691
428.0,7.914094019280925
429.0,9.406720043749287
430.0,10.428099929516799
431.0,9.561876546184719
432.0,8.771004653833629
433.0,8.518574033156922
434.0,11.038525804870167
435.0,12.938459629294947
436.0,13.347651400539199
437.0,14.325445371091165
438.0,15.340547138086661
439.0,16.92760670929622
440.0,17.498216565602398
441.0,17.49002984056628
442.0,18.498895554249064
443.0,20.312031284853106
444.0,21.138394356775237
445.0,20.4021139841975
446.0,19.836957528528814
447.0,20.38817070734144
448.0,16.834203317807518
449.0,15.14005656828889
450.0,13.945809687955476
451.0,12.374056265651799
452.0,10.78964877944047
453.0,11.123223804024205
454.0,10.235456486950355
455.0,9.356567056002927
456.0,8.51275033314035
457.0,7.58341667239061
458.0,7.039440294757801
459.0,5.858638438842025
460.0,6.326920403883354
461.0,6.647833875956788
462.0,5.553378979368491
463.0,3.8352585408441047
464.0,2.175490283049927
465.0,2.387771676636388
466.0,2.6507131998169537
467.0,2.094451587052184
468.0,1.0184122337242223
469.0,-0.006713967142593159
470.0,0.6875690495333487
471.0,0.6845243139106222
472.0,0.33031802929997445
473.0,0.5374062271529603
474.0,1.1559305287965769
475.0,0.27599523487224653
476.0,0.7074692024354375
477.0,1.545463052277235
478.0,0.835282404299549
479.0,0.18238078505396893
480.0,0.6001746785510726
481.0,0.4591814838129054
482.0,0.33919823501578006
483.0,0.597287405233937
484.0,0.12789019557253808
485.0,0.8805895202899406
486.0,1.3802070521879068
487.0,1.4323963196976783
488.0,1.4062244275927251
489.0,1.553436928740186
490.0,0.7192020856592332
491.0,1.098187587883383
492.0,1.5858855122281943
493.0,1.6005559238100069
494.0,1.4215671026184666
495.0,1.8986379996437779
496.0,2.4823333314936176
497.0,2.867826121632822
498.0,2.9502402959727463
499.0,2.835799587324355
500.0,2.728561426076912
501.0,2.640455991504852
502.0,2.868055863644896
503.0,3.8359937630760026
504.0,4.612424258951955
505.0,4.213792993346693
506.0,4.7984101520951725
507.0,4.6485548101265755
508.0,5.043594595417626
509.0,5.885796922688352
510.0,6.686863259245702
511.0,7.516546658141034
512.0,7.470076951697821
513.0,8.306990027292246
514.0,9.481747061393444
515.0,10.676682830486932
516.0,12.168867001949057
517.0,13.0580143789738
518.0,12.631197890870508
519.0,14.023042023019302
520.0,15.980535469913727
521.0,16.24244063290505
522.0,15.534613671901525
523.0,16.1134282196638
524.0,16.48696044560348
525.0,17.705481266705732
526.0,18.65665385785211
527.0,16.805250097014763
528.0,18.896420355411582
529.0,19.369404434635957
530.0,19.101368467753396
531.0,18.65123797150945
532.0,17.80587069037745
533.0,17.92105700486163
534.0,17.9423827905892
535.0,17.00825401162603
536.0,15.914337362933331
537.0,15.080202499169024
538.0,14.116412341041448
539.0,13.177006670621758
540.0,12.092440404409931
541.0,11.66649519107084
542.0,11.277010053035987
543.0,9.925780145825286
544.0,8.4368770000398
545.0,6.500053323578134
546.0,5.826330031271973
547.0,5.51954370247749
548.0,4.71422169829803
549.0,3.602350916631352
550.0,3.4624972326030123
551.0,4.052046493374825
552.0,3.5495769900162624
553.0,2.2149026874962394
554.0,1.5203418913483113
555.0,2.143876734199664
556.0,1.9953652093601162
557.0,1.7242492257935595
558.0,1.7900597631620219
559.0,2.3631738119666634
560.0,3.027608222927445
561.0,1.6527808484500381
562.0,1.9431754407146666
563.0,2.025220674252504
564.0,2.3770537839862196
565.0,3.2535024596591975
566.0,2.6764021349232285
567.0,2.951851648221082
568.0,4.3042748199077705
569.0,4.603357821737983
570.0,4.333783738404394
571.0,5.0482194153786075
572.0,5.4648365224446085
573.0,5.036285022705359
574.0,5.2513942165086664
575.0,5.594411346268864
576.0,5.4360671406096275
577.0,4.791124759904571
578.0,4.321347260071236
579.0,3.652225205387687
580.0,3.5115882229876414
581.0,3.45449900636737
582.0,2.881510557582647
583.0,2.27327090707413
584.0,2.9642951058166997
585.0,2.5977909377240045
586.0,2.022886428769395
587.0,1.677143436779419
588.0,1.474303423607583
589.0,2.1145668565795446
590.0,0.8785502017717401
591.0,0.9426562993743243
592.0,1.1601066603155759
593.0,0.700913559796009
594.0,0.12836155188115875
595.0,0.7024023071687328
596.0,0.5120896032841334
597.0,0.9653791518380643
598.0,0.6418700044226308
599.0,0.5051077673560211
600.0,0.35436062094292076
601.0,0.23859359984455186
602.0,-0.0010331319841362884
603.0,0.9205578303454861
604.0,1.186787026447866
605.0,0.034595257239869
606.0,0.571620573943847
607.0,0.12311341937965822
608.0,0.7162742296160903
609.0,0.5847824527282661
610.0,0.6884111168558069
611.0,2.0147019133913875
612.0,3.5256739900741025
613.0,4.083742061797021
614.0,5.196496503284081
615.0,6.216210355690864
616.0,6.80978548221582
617.0,7.296936571301239
618.0,7.924474777345059
619.0,6.346078115567203
620.0,5.321554379985865
621.0,4.173462689101516
622.0,2.917754475578325
623.0,2.5346652426406537
624.0,2.286988057782957
625.0,1.2759282509184917
626.0,1.4851167432164916
627.0,0.40696021841973307
628.0,0.8138362964723207
629.0,0.8083523345532363
630.0,-0.01572224890948402
631.0,0.22109885257107248
632.0,0.5005954171061581
633.0,0.4121958009227623
634.0,0.3652769495310918
635.0,0.741209745454201
636.0,2.1031906535004556
637.0,1.64647562927175
638.0,2.551771938653505
639.0,3.2327113634996563
640.0,2.849170689380229
641.0,2.9876208167699536
642.0,2.9791587657964342
643.0,3.5462228276834042
644.0,4.170986287980491
645.0,4.360717599788422
646.0,4.283095430667052
647.0,4.5833177999966805
648.0,5.637110072491888
649.0,6.078937592409299
650.0,6.287709964043022
651.0,7.010508512438215
652.0,7.878900183393829
653.0,8.063688439478167
654.0,9.174943316019284
655.0,11.11474486637884
656.0,12.514689962038444
657.0,13.111954912375765
658.0,14.35500213951607
659.0,17.78005200519368
660.0,19.202950427761635
661.0,21.55677441650266
662.0,24.170989837612982
663.0,27.78059517741816
664.0,32.536163038368954
665.0,38.26100456308533
666.0,44.92823002530436
667.0,51.84279884723189
668.0,61.91398277948828
669.0,73.7919405439364
670.0,87.34189410051609
671.0,104.1957278724748
672.0,124.44971220424031
673.0,147.2776996004038
674.0,172.57924596915356
675.0,199.4854650873312
676.0,229.020678874269
677.0,262.4588541643421
678.0,297.9216368146899
679.0,340.65620659172345
680.0,390.35634034150195
681.0,443.6610839167985
682.0,497.5831452662564
683.0,549.7840081367549
684.0,597.2209663113142
685.0,635.2096934663516
686.0,645.8117864654023
687.0,627.0023767623111
688.0,581.0845230472987
689.0,513.1018121645617
690.0,433.63890267393907
691.0,356.6968547405849
692.0,288.72409279881674
693.0,232.1566778441018
694.0,189.13304711456564
695.0,156.725888118089
696.0,129.0536538414708
697.0,109.32774547341651
698.0,92.43003932801545
699.0,78.0844089320424
700.0,66.6881409061735
701.0,58.47713689961148
702.0,52.39713792745663
703.0,46.213645138887664
704.0,40.151838557744526
705.0,35.14939693256025
706.0,31.037904377532886
707.0,26.92673494667257
708.0,23.03140403415012
709.0,21.217285625720784
710.0,19.71788375289322
711.0,17.03108300995124
712.0,14.957859955970356
713.0,12.785016489926013
714.0,10.938415214288499
715.0,11.192644585580048
716.0,9.996554277232669
717.0,8.74893441936861
718.0,7.154932888837919
719.0,6.238721455666195
720.0,5.512903554003377
721.0,4.3578237186921
722.0,4.457636869977992
723.0,3.827443676816166
724.0,4.63638749723319
725.0,4.1702757924500915
726.0,2.946078038875575
727.0,2.202466455884136
728.0,1.5397296582718087
729.0,0.7498750999383914
730.0,1.5110483579456757
731.0,0.30430741934559064
732.0,0.40749534603779103
733.0,1.212890302944222
734.0,0.7173567385989071
735.0,0.5044081852697573
736.0,0.4131875119447036
737.0,0.16184588456652482
738.0,0.405239154638811
739.0,0.2864091136999419
740.0,0.17887438896515778
741.0,0.5856304228139189
742.0,0.2621572527828166
743.0,0.0051657689701663165
744.0,0.49047047773304686
745.0,0.14149012378016917
746.0,0.5955463600518642
747.0,0.011406180495029807
748.0,0.14047183766692434
749.0,0.43513648778896574
750.0,0.27649851128289804
751.0,0.14991099684690717
752.0,0.2661794903497302
753.0,0.2175133036784833
754.0,0.6033118209325301
755.0,0.22950619023994
756.0,0.6695871936264399
757.0,1.1405760490111563
758.0,1.1648877715470416
759.0,0.913361667540969
760.0,0.836230589891412
761.0,1.0604794804224598
762.0,0.5610028588970016
763.0,0.21240335395667437
764.0,0.9580415913028941
765.0,1.8784315929906241
766.0,1.8121786189169211
767.0,0.7909563195645835
768.0,1.3349701525586293
769.0,0.5797287523339826
770.0,1.4526219616369778
771.0,1.2003077383418952
772.0,0.2860518615074332
773.0,0.3976012722231473
774.0,1.3959266355421565
775.0,1.9088666750385703
776.0,1.2709122587044446
777.0,1.47196211004209
778.0,1.4888463350226995
779.0,0.6973428393979146
780.0,0.07206911356209882
781.0,0.8602688329638335
782.0,0.8938354312728578
783.0,0.7295883715480788
784.0,1.6940727699150908
785.0,2.0442544543181147
786.0,0.7338457286639041
787.0,0.14805044367786013
788.0,1.4552495584538452
789.0,1.4385033015843636
790.0,0.4801574277825603
791.0,0.09655016866023991
792.0,0.08569661693009063
793.0,0.8915268380954227
794.0,1.3304158620028237
795.0,0.3594215569078182
796.0,-0.008879900893879883
797.0,0.9718372463169396
798.0,0.4773352579703808
799.0,0.22561828750606838
800.0,0.024705497942322754
801.0,0.18500555121880716
802.0,0.47127803696653153
803.0,0.4674285117152333
804.0,0.6920964968316922
805.0,0.014462077704837505
806.0,0.09939447047550805
807.0,0.7773942881234637
808.0,0.1964724517524769
809.0,0.13240488698129008
810.0,0.06876289277489372
811.0,0.3569114369691244
812.0,0.39229384128094835
813.0,0.6712948908677394
814.0,0.042611440612842846
815.0,0.22437235473928005
816.0,0.8257546468004554
817.0,-0.0031913186106543798
818.0,0.4506428830559305
819.0,0.7743285854018664
820.0,0.9577022552290637
821.0,0.6935297449948399
822.0,0.13190801363952873
823.0,1.3121030644191998
824.0,0.8574443070330607
825.0,1.0035800544269515
826.0,0.8839201501132785
827.0,0.7763138079750833
828.0,0.4990125106671443
829.0,0.06950205512893955
830.0,0.6560314524652654
831.0,1.6582699318205445
832.0,1.412682352268694
833.0,0.7436406551400083
834.0,1.3494785471513542
835.0,1.7967455537972044
836.0,0.8400558219052794
837.0,1.157595549264865
838.0,0.5327961429336423
839.0,1.249371682721549
840.0,1.6065496876777792
841.0,1.5012643739919753
842.0,1.2602701130834324
843.0,1.2256674340340126
844.0,1.6636992822141774
845.0,1.1306049806809753
846.0,1.9079320939853246
847.0,2.1895255418519426
848.0,1.915656354777876
849.0,1.7225784823317936
850.0,1.7780628671338607
851.0,1.8319761234876437
852.0,2.2097076047073965
853.0,1.887191900621662
854.0,1.7316156959620985
855.0,2.0914569867741353
856.0,2.3470126666315467
857.0,1.7626753847898156
858.0,0.954789338025805
859.0,2.2424729260545684
860.0,1.8431964584636245
861.0,2.2083976073313223
862.0,1.6330155255640226
863.0,1.3357306492372523
864.0,1.7441910515153471
865.0,2.0877427613371444
866.0,1.864135237335701
867.0,1.2756483926314939
868.0,0.9679399009266693
869.0,2.330438194145249
870.0,2.9650620910683614
871.0,2.759324395499433
872.0,2.4516068793681187
873.0,2.2979880960716743
874.0,2.53791514842931
875.0,2.532621740546053
876.0,2.947795581121233
877.0,2.618458545547022
878.0,2.6494947678952268
879.0,3.1370285483731064
880.0,3.251770848512851
881.0,3.0858644367444947
882.0,3.1972891689899736
883.0,3.952104303848202
884.0,3.0267985011669163
885.0,2.7113271603857902
886.0,2.965468019356517
887.0,3.372105712551646
888.0,3.871349718911599
889.0,2.8832061463258603
890.0,3.8035959599479505
891.0,4.285214050479488
892.0,3.9759483846634023
893.0,3.3617997015939327
894.0,3.261249854652683
895.0,4.1379675592073974
896.0,5.370987711451095
897.0,4.888516270430128
898.0,6.108211869718057
899.0,4.994985420015769
900.0,4.451800021733382
901.0,5.550157225721506
902.0,6.368714606347561
903.0,6.01935219978589
904.0,6.846003133198434
905.0,7.057148981301107
906.0,6.650936492914741
907.0,7.4842512238430015
908.0,7.950503008803532
909.0,8.755818370184164
910.0,9.228608782431191
911.0,8.436286529185736
912.0,9.45042975423462
913.0,10.993655319286187
914.0,10.176006925423737
915.0,11.034061703298763
916.0,10.328350267798132
917.0,9.945417852136293
918.0,10.502103118057326
919.0,10.42503972692804
920.0,12.344901478126536
921.0,12.089976897603153
922.0,11.672070734671045
923.0,11.047600401869552
924.0,11.671115299574446
925.0,12.06618622683189
926.0,11.424455183538413
927.0,10.87295819501908
928.0,10.118794537159403
929.0,9.996114477779425
930.0,9.982010681597766
931.0,10.261830846516862
932.0,9.402659168389441
933.0,8.92087817215462
934.0,9.19858365144174
935.0,8.695801560174601
936.0,8.903334393783076
937.0,7.537146994708532
938.0,7.57650300528565
939.0,6.990319300593584
940.0,6.910175818927803
941.0,7.160146418797864
942.0,6.8295666348484
943.0,6.152145611639119
944.0,6.0309903613710105
945.0,3.85441342699206
946.0,4.871228000450434
947.0,5.065574705205617
948.0,4.032462650861202
949.0,3.069209944058596
950.0,3.051469585469795
951.0,3.6311306803837375
952.0,3.903788219120121
953.0,3.6504064421238205
954.0,2.4831153620404436
955.0,2.0961835808391243
956.0,2.4120449453927404
957.0,2.2282863245249915
958.0,1.8955402966226231
959.0,2.1103012700096615
960.0,1.7540809705608253
961.0,0.2913493295904873
962.0,0.5928053439180433
963.0,1.0865071982017063
964.0,0.3944600512315506
965.0,1.0107116330163988
966.0,0.3078054277029542
967.0,0.32412298630257763
968.0,1.4987137053720219
969.0,0.6614020806029305
970.0,0.14754273858974912
971.0,0.6427942962433889
972.0,1.5946540878947948
973.0,2.0990220009650042
974.0,1.9461241986626792
975.0,1.4443887525762058
976.0,1.310875594059078
977.0,2.1471778392366994
978.0,1.8634330815321256
979.0,1.9024881508380742
980.0,1.794262517761651
981.0,2.7227683417567174
982.0,2.2922575697262766
983.0,1.4715482231838053
984.0,1.7643383071062508
985.0,1.4999216787306109
986.0,0.7291555837964498
987.0,0.5879282865989884
988.0,0.3447352982537565
989.0,0.7284988693805906
990.0,2.0812783766610163
991.0,3.773365063235344
992.0,4.693044847052758
993.0,5.834896954262007
994.0,8.64640146415899
995.0,10.175845385094684
996.0,11.692526981040986
997.0,14.897201342133357
998.0,16.362740561559264
999.0,18.881635099431236
1000.0,21.61879314668378
1001.0,23.726617949496674
1002.0,26.605309389595718
1003.0,28.94000719350363
1004.0,31.98718258807465
1005.0,32.359649999999995
1006.0,35.39052028034159
1007.0,36.686459476946666
1008.0,38.145471770559105
1009.0,38.48461458232047
1010.0,37.532524217889154
1011.0,38.23185932245583
1012.0,36.33011567064437
1013.0,33.16759819961378
1014.0,33.012911444807024
1015.0,30.742826345362815
1016.0,28.588956448308714
1017.0,26.443475042046494
1018.0,23.46464371680203
1019.0,20.26901947070365
1020.0,17.601430553448683
1021.0,14.388876307000901
1022.0,13.343165371842737
1023.0,12.270456926272534
1024.0,10.449527586104098
1025.0,8.69678671749263
1026.0,6.964489955084441
1027.0,6.514031649784981
1028.0,6.811969857662175
1029.0,5.671689860539347
1030.0,4.15434689121491
1031.0,4.840219320933185
1032.0,6.49032931679788
1033.0,6.938208796675219
1034.0,7.254119151998164
1035.0,8.412087080357123
1036.0,9.651165591429317
1037.0,10.756244451233503
1038.0,13.212710676580922
1039.0,17.02304228777045
1040.0,19.951115391089413
1041.0,21.49134496613469
1042.0,26.289525887115666
1043.0,31.600176526347965
1044.0,36.997855226878606
1045.0,43.209319959146406
1046.0,50.637586114205625
1047.0,59.07484825074664
1048.0,68.59518120138836
1049.0,79.57646924115525
1050.0,90.59134875842297
1051.0,102.41310754345045
1052.0,115.29174269176552
1053.0,131.49653915204775
1054.0,149.409257134783
1055.0,167.75537123781336
1056.0,186.81588811037705
1057.0,206.79513426532176
1058.0,228.41676635661486
1059.0,248.380274592558
1060.0,271.461023213567
1061.0,289.8317741867477
1062.0,308.5020518203997
1063.0,327.3916663375166
1064.0,345.05658409446306
1065.0,356.01952919436513
1066.0,360.34370435203317
1067.0,367.7079381183499
1068.0,365.09978012205926
1069.0,359.4336007439157
1070.0,350.0834398318396
1071.0,339.2891862172226
1072.0,326.8502636888994
1073.0,311.9956642308462
1074.0,293.9445349878272
1075.0,275.1718709852776
1076.0,257.71801127610524
1077.0,238.08959705856503
1078.0,221.13198781100633
1079.0,201.03991527603785
1080.0,183.37716833595925
1081.0,169.0189007556427
1082.0,154.51380498254525
1083.0,138.42924115876457
1084.0,124.14438911320588
1085.0,112.90666922826934
1086.0,101.40612505125485
1087.0,90.4284437228404
1088.0,83.00457624875636
1089.0,74.48304519190906
1090.0,67.75195929486469
1091.0,62.37851039670173
1092.0,56.454261370504
1093.0,52.25108686949415
1094.0,48.88835128459766
1095.0,45.17072976947304
1096.0,42.421179639588786
1097.0,38.541590477121936
1098.0,35.29686327995236
1099.0,33.06493025308088
1100.0,31.393567539664517
1101.0,30.364473851439417
1102.0,29.89836295107673
1103.0,28.322824146836663
1104.0,25.378596947434552
1105.0,23.650434913176674
1106.0,24.068303353054684
1107.0,22.85477483393957
1108.0,21.908350941605402
1109.0,20.51595391969707
1110.0,20.937423780814836
1111.0,22.52507435966248
1112.0,22.220603556236856
1113.0,20.962498802832283
1114.0,18.98653537227641
1115.0,18.184915365955188
1116.0,18.885840839144088
1117.0,17.437573129586564
1118.0,18.565397337089237
1119.0,18.224559413467624
1120.0,17.300115296579953
1121.0,17.983193232186327
1122.0,18.726029980966853
1123.0,18.317527229054996
1124.0,17.64866524977748
1125.0,17.10600511244304
1126.0,17.151678499089087
1127.0,18.855663246396514
1128.0,20.50741474309916
1129.0,19.48720559865043
1130.0,20.190996420590903
1131.0,20.893447265222697
1132.0,21.365263912161215
1133.0,20.552329768477524
1134.0,21.218346895476188
1135.0,22.345946312511774
1136.0,23.177314203387905
1137.0,23.848778641978367
1138.0,23.41220216258968
1139.0,24.391970709866825
1140.0,25.07438677938601
1141.0,23.827894513150856
1142.0,23.96723635264765
1143.0,24.780653549764
1144.0,23.406436878842054
1145.0,22.98958224174523
1146.0,22.28032080596112
1147.0,20.495893211072456
1148.0,19.976745442253854
1149.0,19.674783119030838
1150.0,18.19915860632423
1151.0,15.693669946489155
1152.0,14.648492275781976
1153.0,12.418708448140283
1154.0,12.158395017770095
1155.0,10.639384242154986
1156.0,8.79936461949678
1157.0,7.597659837320939
1158.0,5.648296324504648
1159.0,3.494412769190467
1160.0,2.8369951160720293
1161.0,0.9692846822743575
1162.0,0.38652868618362374
1163.0,0.4825541852415933
1164.0,0.9647950399107751
1165.0,1.1349691253151253
1166.0,1.4532837754241126
1167.0,1.7879324577192555
1168.0,2.1980484271783083
1169.0,2.905884056588088
1170.0,3.154124751712682
1171.0,2.525773792280771
1172.0,2.5372987773910585
1173.0,1.704610443434342
1174.0,2.943661474942547
1175.0,2.4825681163023234
1176.0,1.4353849857165877
1177.0,1.1767553343125137
1178.0,0.9001737304789027
1179.0,0.6916197342746062
1180.0,0.32076120924475776
1181.0,0.22257723611440716
1182.0,0.42058331738873905
1183.0,0.05939747746020963
1184.0,0.4778550155782287
1185.0,0.17841260567806225
1186.0,1.115369001467301
1187.0,1.0940323329606092
1188.0,1.7502782108653847
1189.0,1.0196322731742087
1190.0,1.5826968404692474
1191.0,1.8664105740740293
1192.0,1.8443556158827739
1193.0,2.0019273563618882
1194.0,1.7641764835562161
1195.0,2.338998001288595
1196.0,3.324429020711216
1197.0,2.2705405557045317
1198.0,3.094268747480853
1199.0,2.5635697732985827
1200.0,3.3158693023689776
1201.0,3.0379828827601285
1202.0,3.904458303005191
1203.0,4.401282560795851
1204.0,4.742725186116872
1205.0,4.130485191601672
1206.0,3.279342632743896
1207.0,5.224634289513254
1208.0,5.055623213479528
1209.0,5.311528800662857
1210.0,4.459394258667124
1211.0,4.685233981744218
1212.0,4.61132291646068
1213.0,5.295573701009478
1214.0,5.553368224891514
1215.0,5.543643636491769
1216.0,5.507530575351597
1217.0,5.873541652447215
1218.0,6.308234740272714
1219.0,6.429213983790453
1220.0,7.2314852489917465
1221.0,6.491879136445096
1222.0,7.346937475783236
1223.0,6.529990508481545
1224.0,6.717302737380276
1225.0,6.9103341121524595
1226.0,5.962444326825438
1227.0,5.386853833015347
1228.0,5.58713147874617
1229.0,4.96911395876927
1230.0,4.787244221739525
1231.0,5.303093854108568
1232.0,4.250706031085132
1233.0,4.336100746245032
1234.0,4.248875681749951
1235.0,4.536243902443325
1236.0,4.5225514589117655
1237.0,3.6022705357260696
1238.0,2.935102469301822
1239.0,3.1586538766476315
1240.0,3.5335088731379956
1241.0,3.6297274666750727
1242.0,3.354098284615079
1243.0,2.752574231293662
1244.0,2.5382702000604778
1245.0,2.8234859604859737
1246.0,2.8183442976535327
1247.0,2.6141469122857486
1248.0,1.9338283320662466
1249.0,2.554441913950546
1250.0,1.5773333784109143
1251.0,1.3936989370025878
1252.0,1.8131086149292635
1253.0,2.409401624137787
1254.0,1.3662786479633013
1255.0,1.275745272275496
1256.0,1.9180135651781776
1257.0,2.074935320017723
1258.0,1.9858157117303925
1259.0,1.6977758953387596
1260.0,2.862391045387646
1261.0,1.9023208459387957
1262.0,1.0138663838107032
1263.0,1.2613477730795057
1264.0,0.5080581710078372
1265.0,1.4496859624528458
1266.0,0.8197352318810534
1267.0,2.0047766879481403
1268.0,1.1149764019302444
1269.0,0.05240083948005135
1270.0,0.11102267729005813
1271.0,0.709940009971804
1272.0,0.8619776112917298
1273.0,0.48916895379017966
1274.0,0.016151196393474333
1275.0,0.0
1276.0,0.0
1277.0,0.0
1278.0,0.0
1279.0,0.0
1280.0,0.0
1281.0,0.0
1282.0,0.0
1283.0,0.0
1284.0,0.0
1285.0,0.0
1286.0,0.0
1287.0,0.0
1288.0,0.0
1289.0,0.0
1290.0,0.0
1291.0,0.0
1292.0,0.0
1293.0,0.0
1294.0,0.0
1295.0,0.0
1296.0,0.0
1297.0,0.0
1298.0,0.0
1299.0,0.0
1300.0,0.0
1301.0,0.0
1302.0,0.0
1303.0,0.0
1304.0,0.0
1305.0,0.0
1306.0,0.0
1307.0,0.0
1308.0,0.0
1309.0,0.0
1310.0,0.0
1311.0,0.0
1312.0,0.0
1313.0,0.0
1314.0,0.0
1315.0,0.0
1316.0,0.0
1317.0,0.0
1318.0,0.0
1319.0,0.0
1320.0,0.0
1321.0,0.0
1322.0,0.0
1323.0,0.0
1324.0,0.0
1325.0,0.0
1326.0,0.0
1327.0,0.0
1328.0,0.0
1329.0,0.0
1330.0,0.0
1331.0,0.0
1332.0,0.0
1333.0,0.0
1334.0,0.0
1335.0,0.0
1336.0,0.0
1337.0,0.0
1338.0,0.0
1339.0,0.0
1340.0,0.0
1341.0,0.0
1342.0,0.0
1343.0,0.0
1344.0,0.0
1345.0,0.0
1346.0,0.0
1347.0,0.0
1348.0,0.0
1349.0,0.0
1350.0,0.0
1351.0,0.0
1352.0,0.0
1353.0,0.0
1354.0,0.0
1355.0,0.0
1356.0,0.0
1357.0,0.0
1358.0,0.0
1359.0,0.0
1360.0,0.0
1361.0,0.0
1362.0,0.0
1363.0,0.0
1364.0,0.0
1365.0,0.0
1366.0,0.0
1367.0,0.0
1368.0,0.0
1369.0,0.0
1370.0,0.0
1371.0,0.0
1372.0,0.0
1373.0,0.0
1374.0,0.0
1375.0,0.0
1376.0,0.0
1377.0,0.0
1378.0,0.0
1379.0,0.0
1380.0,0.0
1381.0,0.0
1382.0,0.0
1383.0,0.0
1384.0,0.0
1385.0,0.0
1386.0,0.0
1387.0,0.0
1388.0,0.0
1389.0,0.0
1390.0,0.0
1391.0,0.0
1392.0,0.0
1393.0,0.0
1394.0,0.0
1395.0,0.0
1396.0,0.0
1397.0,0.0
1398.0,0.0
1399.0,0.0
1400.0,0.0
1401.0,0.0
1402.0,0.0
1403.0,0.0
1404.0,0.0
1405.0,0.0
1406.0,0.0
1407.0,0.0
1408.0,0.0
1409.0,0.0
1410.0,0.0
1411.0,0.0
1412.0,0.0
1413.0,0.0
1414.0,0.0
1415.0,0.0
1416.0,0.0
1417.0,0.0
1418.0,0.0
1419.0,0.0
1420.0,0.0
1421.0,0.0
1422.0,0.0
1423.0,0.0
1424.0,0.0
1425.0,0.0
1426.0,0.0
1427.0,0.0
1428.0,0.0
1429.0,0.0
1430.0,0.0
1431.0,0.0
1432.0,0.0
1433.0,0.0
1434.0,0.0
1435.0,0.0
1436.0,0.0
1437.0,0.0
1438.0,0.0
1439.0,0.0
1440.0,0.0
1441.0,0.0
1442.0,0.0
1443.0,0.0
1444.0,0.0
1445.0,0.0
1446.0,0.0
1447.0,0.0
1448.0,0.0
1449.0,0.0
1450.0,0.0
1451.0,0.0
1452.0,0.0
1453.0,0.0
1454.0,0.0
1455.0,0.0
1456.0,0.0
1457.0,0.0
1458.0,0.0
1459.0,0.0
1460.0,0.0
1461.0,0.0
1462.0,0.0
1463.0,0.0
1464.0,0.0
1465.0,0.0
1466.0,0.0
1467.0,0.0
1468.0,0.0
1469.0,0.0
1470.0,0.0
1471.0,0.0
1472.0,0.0
1473.0,0.0
1474.0,0.0
1475.0,0.0
1476.0,0.0
1477.0,0.0
1478.0,0.0
1479.0,0.0
1480.0,0.0
1481.0,0.0
1482.0,0.0
1483.0,0.0
1484.0,0.0
1485.0,0.0
1486.0,0.0
1487.0,0.0
1488.0,0.0
1489.0,0.0
1490.0,0.0
1491.0,0.0
1492.0,0.0
1493.0,0.0
1494.0,0.0
1495.0,0.0
1496.0,0.0
1497.0,0.0
1498.0,0.0
1499.0,0.0
1500.0,0.0
1501.0,0.0
1502.0,0.0
1503.0,0.0
1504.0,0.0
1505.0,0.0
1506.0,0.0
1507.0,0.0
1508.0,0.0
1509.0,0.0
1510.0,0.0
1511.0,0.0
1512.0,0.0
1513.0,0.0
1514.0,0.0
1515.0,0.0
1516.0,0.0
1517.0,0.0
1518.0,0.0
1519.0,0.0
1520.0,0.0
1521.0,0.0
1522.0,0.0
1523.0,0.0
1524.0,0.0
1525.0,0.0
1526.0,0.0
1527.0,0.0
1528.0,0.0
1529.0,0.0
1530.0,0.0
1531.0,0.0
1532.0,0.0
1533.0,0.0
1534.0,0.0
1535.0,0.0
1536.0,0.0
1537.0,0.0
1538.0,0.0
1539.0,0.0
1540.0,0.0
1541.0,0.0
1542.0,0.0
1543.0,0.0
1544.0,0.0
1545.0,0.0
1546.0,0.0
1547.0,0.0
1548.0,0.0
1549.0,0.0
1550.0,0.0
1551.0,0.0
1552.0,0.0
1553.0,0.0
1554.0,0.0
1555.0,0.0
1556.0,0.0
1557.0,0.0
1558.0,0.0
1559.0,0.0
1560.0,0.0
1561.0,0.0
1562.0,0.0
1563.0,0.0
1564.0,0.0
1565.0,0.0
1566.0,0.0
1567.0,0.0
1568.0,0.0
1569.0,0.0
1570.0,0.0
1571.0,0.0
1572.0,0.0
1573.0,0.0
1574.0,0.0
1575.0,0.0
1576.0,0.0
1577.0,0.0
1578.0,0.0
1579.0,0.0
1580.0,0.0
1581.0,0.0
1582.0,0.0
1583.0,0.0
1584.0,0.0
1585.0,0.0
1586.0,0.0
1587.0,0.0
1588.0,0.0
1589.0,0.0
1590.0,0.0
1591.0,0.0
1592.0,0.0
1593.0,0.0
1594.0,0.0
1595.0,0.0
1596.0,0.0
1597.0,0.0
1598.0,0.0
1599.0,0.0
