0.0,0.0
1.0,0.0
2.0,0.0
3.0,0.0
4.0,0.0
5.0,0.0
6.0,0.0
7.0,0.0
8.0,0.0
9.0,0.0
10.0,0.0
11.0,0.0
12.0,0.0
13.0,0.0
14.0,0.0
15.0,0.0
16.0,0.0
17.0,0.0
18.0,0.0
19.0,0.0
20.0,0.0
21.0,0.0
22.0,0.0
23.0,0.0
24.0,0.0
25.0,0.0
26.0,0.0
27.0,0.0
28.0,0.0
29.0,0.0
30.0,0.0
31.0,0.0
32.0,0.0
33.0,0.0
34.0,0.0
35.0,0.0
36.0,0.0
37.0,0.0
38.0,0.0
39.0,0.0
40.0,0.0
41.0,0.0
42.0,0.0
43.0,0.0
44.0,0.0
45.0,0.0
46.0,0.0
47.0,0.0
48.0,0.0
49.0,0.0
50.0,0.0
51.0,0.0
52.0,0.0
53.0,0.0
54.0,0.0
55.0,0.0
56.0,0.0
57.0,0.0
58.0,0.0
59.0,0.0
60.0,0.0
61.0,0.0
62.0,0.0
63.0,0.0
64.0,0.0
65.0,0.0
66.0,0.0
67.0,0.0
68.0,0.0
69.0,0.0
70.0,0.0
71.0,0.0
72.0,0.0
73.0,0.0
74.0,0.0
75.0,0.0
76.0,0.0
77.0,0.0
78.0,0.0
79.0,0.0
80.0,0.0
81.0,0.0
82.0,0.0
83.0,0.0
84.0,0.0
85.0,0.0
86.0,0.0
87.0,0.0
88.0,0.0
89.0,0.0
90.0,0.0
91.0,0.0
92.0,0.0
93.0,0.0
94.0,0.0
95.0,0.0
96.0,0.0
97.0,0.0
98.0,0.0
99.0,0.0
100.0,0.0
101.0,0.0
102.0,0.0
103.0,0.0
104.0,0.0
105.0,0.0
106.0,0.0
107.0,0.0
108.0,0.0
109.0,0.0
110.0,0.0
111.0,0.0
112.0,0.0
113.0,0.0
114.0,0.0
115.0,0.0
116.0,0.0
117.0,0.0
118.0,0.0
119.0,0.0
120.0,0.0
121.0,0.0
122.0,0.0
123.0,0.0
124.0,0.0
125.0,0.0
126.0,0.0
127.0,1.4746245047638715
128.0,-0.06924587435946204
129.0,1.2086827836961809
130.0,3.4083038843978017
131.0,3.1767205822743794
132.0,3.648073815616113
133.0,4.7381354735735
134.0,5.972941705021118
135.0,8.092762224804126
136.0,10.446285860407102
137.0,11.824089614610186
138.0,12.321845808967188
139.0,14.76924488952602
140.0,16.192364786335894
141.0,15.161733793086315
142.0,13.575854144052343
143.0,14.607287016020948
144.0,14.366789634693568
145.0,15.8466664297558
146.0,16.90512465198403
147.0,14.242319682015317
148.0,11.98862254326168
149.0,9.924176583097003
150.0,7.716933976850127
151.0,5.719150620747016
152.0,4.331871789776318
153.0,2.5020861173207973
154.0,1.3505525846325108
155.0,1.146033329419704
156.0,0.11223062515909553
157.0,0.05615379892542357
158.0,0.2645300188816122
159.0,0.6636723421870722
160.0,0.4706852167730942
161.0,0.8686480578209193
162.0,0.2686850489087822
163.0,0.22469691645947043
164.0,0.6992833733040351
165.0,0.29744176020501084
166.0,0.7976132325338199
167.0,1.1329598860514491
168.0,0.35027490790235466
169.0,0.4654702658756712
170.0,0.08077942418457879
171.0,1.6158719619154462
172.0,3.466821022396498
173.0,2.425693542140602
174.0,2.7401915502169114
175.0,2.982035179207477
176.0,3.5773921550637366
177.0,4.483355125960313
178.0,3.3040716856207504
179.0,3.4915369317345
180.0,4.552115963686733
181.0,5.476105562065276
182.0,5.313810615754124
183.0,4.672976913079085
184.0,4.684003548774899
185.0,5.390753860989953
186.0,6.399122842204848
187.0,7.12191646662038
188.0,6.304570000853568
189.0,5.758587241403059
190.0,6.644923104973388
191.0,7.078020367701838
192.0,7.56025074361164
193.0,6.227620727738761
194.0,4.213061396022706
195.0,4.46702806950738
196.0,3.8849522709575623
197.0,2.9923860305805605
198.0,2.662809716964031
199.0,3.3824631590564898
200.0,4.141165675389415
201.0,4.31422265720746
202.0,4.303561990702354
203.0,4.304038495518812
204.0,3.429969941934753
205.0,2.8754429016720566
206.0,3.118074975288326
207.0,3.877187983915966
208.0,4.8673344590640735
209.0,5.5749352164941
210.0,4.933095158456455
211.0,4.740284635552624
212.0,5.475383837315742
213.0,5.200156980671623
214.0,5.25395305937279
215.0,5.398012195110199
216.0,5.0877657288798215
217.0,4.221269724986323
218.0,4.814631387430748
219.0,4.451205494305305
220.0,4.340682581036179
221.0,4.867925182434612
222.0,3.519914604567632
223.0,4.2819609694790675
224.0,4.592306143486711
225.0,4.055345356467771
226.0,4.198143271137897
227.0,4.491906452182967
228.0,5.053205764817006
229.0,5.58884657237052
230.0,6.041684867313479
231.0,6.940015881208717
232.0,7.96795562567533
233.0,7.533599727440536
234.0,6.879349691283544
235.0,7.812699916426615
236.0,8.754499605548494
237.0,8.462668690017994
238.0,8.883215063365398
239.0,10.369588783174919
240.0,9.29648021375257
241.0,10.244338151655795
242.0,9.883021988417157
243.0,8.93124853419545
244.0,10.63096475890772
245.0,9.83280333792688
246.0,10.287927163846469
247.0,11.356144013066233
248.0,11.67751858692855
249.0,11.594021519116987
250.0,12.695892612815548
251.0,12.385038513356921
252.0,11.462608330268724
253.0,11.743756352752825
254.0,10.773659921047486
255.0,8.900284898758839
256.0,6.4237340005730985
257.0,3.785216120780929
258.0,1.593441987907556
259.0,1.0825231504427835
260.0,0.19030829633676144
261.0,0.5711792345306439
262.0,0.29477163512390914
263.0,0.9827773942183834
264.0,0.5019188055652952
265.0,0.4275910757056889
266.0,0.7056916851355511
267.0,0.28569122976668165
268.0,0.2732108497534001
269.0,0.236386140998441
270.0,1.274794289335722
271.0,1.7248269246592403
272.0,1.1481155937716279
273.0,1.2467863594643458
274.0,2.5449270825251253
275.0,3.6902087380654187
276.0,3.584053180204186
277.0,3.893283869910162
278.0,4.464876999910952
279.0,4.545138251152118
280.0,4.637410302333741
281.0,5.811362732106794
282.0,6.56320168917587
283.0,7.373867751287673
284.0,8.85375230035061
285.0,10.434115309264724
286.0,10.262513378673544
287.0,12.504962233457363
288.0,13.482433989795442
289.0,14.090351312790533
290.0,16.288127977352087
291.0,18.318279618637746
292.0,18.159915797819504
293.0,18.55403123658775
294.0,18.842321048714442
295.0,17.085390909685817
296.0,16.69867347754105
297.0,17.176883854428134
298.0,17.303468200752285
299.0,17.1279466022499
300.0,17.60456897126582
301.0,17.541709359451882
302.0,18.05777357127129
303.0,18.359081343726967
304.0,18.675390316687164
305.0,21.629394783654906
306.0,22.018278348848238
307.0,23.95947395404194
308.0,26.416100552521456
309.0,27.070795168416968
310.0,27.266919386415374
311.0,28.72666495442031
312.0,30.479274180171263
313.0,32.68130149778128
314.0,36.30893806276931
315.0,39.790358964462506
316.0,42.02058615442396
317.0,44.171020328968964
318.0,47.37929632573055
319.0,51.65602212832822
320.0,55.80021162747513
321.0,60.073720809856034
322.0,64.57980419154218
323.0,67.50480782767431
324.0,66.18490032999922
325.0,61.109370452323525
326.0,52.36138470335606
327.0,41.35663848114069
328.0,30.30376978773381
329.0,21.632286328787636
330.0,14.844905817764014
331.0,10.658103240242117
332.0,7.789155658366523
333.0,5.350366279614174
334.0,4.806448909861128
335.0,3.1758457963485114
336.0,2.0265364573964533
337.0,1.6868656218741749
338.0,1.596809827838646
339.0,1.203522586211006
340.0,0.4260797122985549
341.0,0.17622925073771392
342.0,0.25139959630454695
343.0,0.08513754404467189
344.0,0.10130642789966315
345.0,0.02275301932313388
346.0,0.11372951615019068
347.0,0.13089085497333727
348.0,0.7080112448919056
349.0,0.34854341195726024
350.0,0.0005152386616958959
351.0,0.09971767734970076
352.0,0.21025927920241103
353.0,0.34282550457643607
354.0,0.3616218825720739
355.0,0.6644293694626955
356.0,0.43021109584192585
357.0,0.226372692184156
358.0,0.3670815056239232
359.0,0.06286925627137255
360.0,0.6187599251801335
361.0,0.7670931601918085
362.0,0.5263781480005646
363.0,0.8653115005419341
364.0,2.6608536785921535
365.0,3.083299826892478
366.0,2.3682187212870573
367.0,1.9361124617783352
368.0,2.90154959340699
369.0,2.658409673296016
370.0,3.9819888103709147
371.0,4.855394685706019
372.0,4.964622456170083
373.0,6.421779492701731
374.0,8.504565724236532
375.0,9.682636010627933
376.0,11.307898154781881
377.0,13.98686756320749
378.0,16.720970656137027
379.0,19.821256390112776
380.0,22.85705032076082
381.0,25.89896147600223
382.0,28.99601769798296
383.0,32.04549187075691
384.0,35.66438758438516
385.0,37.28325943877695
386.0,40.40608649659712
387.0,45.428147555965595
388.0,48.55403327689029
389.0,51.26270799671461
390.0,58.56520583300679
391.0,65.38914765835784
392.0,71.4617679193784
393.0,79.39290980558623
394.0,86.7584956861439
395.0,92.9081998680389
396.0,97.87760655698942
397.0,101.49480666731671
398.0,102.94551909414284
399.0,99.4145807624519
400.0,90.8775652659385
401.0,79.8075283399918
402.0,68.13860286245605
403.0,57.29215455900329
404.0,47.91325408968487
405.0,39.08472624626505
406.0,31.514981324624443
407.0,25.87172179673601
408.0,22.2168183616859
409.0,19.97764624670899
410.0,17.391990112110147
411.0,16.364257718515262
412.0,15.410646489259781
413.0,13.73075561069563
414.0,13.83956095449982
415.0,14.762861721471184
416.0,13.779125510128804
417.0,13.740574350029501
418.0,15.665486448143097
419.0,15.231373884788187
420.0,15.342852281846817
421.0,16.671192335145978
422.0,17.573837172242694
423.0,17.042943415601176
424.0,15.747712872688716
425.0,14.196658383464488
426.0,11.998185906231173
427.0,11.022210107611953
428.0,10.993252852985334
429.0,10.274267219375272
430.0,9.567990536352438
431.0,10.186361186712302
432.0,9.883446931388082
433.0,9.590314890638917
434.0,10.303109289562908
435.0,10.90909614436937
436.0,11.81274330352877
437.0,13.466581083037873
438.0,14.570509981432505
439.0,15.031678069936126
440.0,16.424189136212227
441.0,17.831048740179593
442.0,18.869030023136993
443.0,19.71011684458827
444.0,20.664473588414026
445.0,21.77568872350973
446.0,21.89864468878637
447.0,22.324462674250636
448.0,22.74017306076544
449.0,21.67394822262877
450.0,18.45705341191566
451.0,14.700892851443296
452.0,13.694908396964081
453.0,12.556114563321684
454.0,10.932266694546497
455.0,9.314608743386326
456.0,8.091980288277824
457.0,6.182502444619382
458.0,4.673504614628097
459.0,4.089990905560872
460.0,3.9760514630890613
461.0,3.2138476213118454
462.0,2.4123987323770737
463.0,1.0651819234884672
464.0,0.9230071240797273
465.0,1.075511829897927
466.0,0.2798884834243624
467.0,0.37504479935886337
468.0,0.16167300660663553
469.0,0.06613796495523401
470.0,0.14205927595425827
471.0,0.4887971087556152
472.0,0.6773186364125102
473.0,0.33418143738552014
474.0,0.04941390045615397
475.0,0.6670153532006244
476.0,0.8369555362977381
477.0,0.05258221120437385
478.0,0.4466294735810046
479.0,0.1794065873963518
480.0,0.6861030088181017
481.0,0.46387415508712415
482.0,0.2577516511108005
483.0,0.8195633591629522
484.0,0.4093686566789352
485.0,0.6673058780772184
486.0,0.16742984255019647
487.0,1.2552764401452559
488.0,1.4584228428839459
489.0,0.07634422037664065
490.0,0.3081539956471807
491.0,0.44194448622984117
492.0,0.28000508144610686
493.0,0.20598446221273475
494.0,1.8864668954020654
495.0,0.7457453385975853
496.0,0.43013791137381874
497.0,0.9437118672341503
498.0,1.5482015214364946
499.0,1.9596267494509458
500.0,2.08354466654541
501.0,2.088375471277147
502.0,2.541002797272586
503.0,3.1747477152960926
504.0,3.804513091854913
505.0,4.445426293968162
506.0,5.1546106181162825
507.0,5.7452824673331415
508.0,6.405089104001401
509.0,7.135958498508702
510.0,7.96982994743397
511.0,8.998174311930697
512.0,9.272897020680789
513.0,10.608238365069802
514.0,12.17141455231493
515.0,13.785971633666719
516.0,15.42739793434764
517.0,16.076609167237617
518.0,17.842140283183372
519.0,18.573795239097418
520.0,20.18742016206111
521.0,22.11600788670853
522.0,21.946929907236672
523.0,24.652696072165423
524.0,25.07538344750801
525.0,26.42202810470867
526.0,27.19880448803249
527.0,26.35836978524643
528.0,26.9667299011424
529.0,26.405699442705846
530.0,25.200167719345128
531.0,23.24578292092818
532.0,20.896163412492513
533.0,18.89516232485812
534.0,18.2302299546283
535.0,16.932699495902867
536.0,15.818730548656568
537.0,14.901429547758543
538.0,13.805728817476556
539.0,12.208928835612406
540.0,11.209321740713728
541.0,10.245935910239634
542.0,8.949603989245006
543.0,7.976604074009211
544.0,7.377951203462728
545.0,6.087798297917634
546.0,5.139810202547264
547.0,5.39498360833433
548.0,4.899788198963603
549.0,4.174607168496634
550.0,3.6430402311954277
551.0,2.967001605165956
552.0,2.9468146667291926
553.0,2.4377860568796863
554.0,1.8519017156618256
555.0,2.274029209415927
556.0,3.5070010301106196
557.0,3.0209776024726085
558.0,2.740730256953648
559.0,3.341386060836766
560.0,3.757448704527273
561.0,3.680446883629572
562.0,3.537477744212882
563.0,3.7939875178262836
564.0,4.781062001329772
565.0,4.221451698446322
566.0,3.602254712591063
567.0,4.142324745595834
568.0,5.530409859261843
569.0,4.98188711622697
570.0,5.105940911158932
571.0,4.900879871644885
572.0,5.01113084557596
573.0,6.0187228332237215
574.0,7.009731644411204
575.0,5.961939818399067
576.0,6.028703025363621
577.0,6.297181678474103
578.0,6.2922861727175095
579.0,6.212162069951208
580.0,6.177007283327581
581.0,5.52073731237066
582.0,5.301055699418244
583.0,5.46572736955668
584.0,4.906557985764635
585.0,4.048909478591381
586.0,3.611027664626203
587.0,2.763973553765895
588.0,2.5367426059392995
589.0,3.639069596893743
590.0,2.7132492648007926
591.0,1.292443940995093
592.0,1.2719801318437962
593.0,0.6782591030901615
594.0,0.22260588990843203
595.0,0.3728978569848823
596.0,0.1108510066874241
597.0,0.32467362619284207
598.0,0.38768531687851265
599.0,0.12331263587048955
600.0,0.030684382231148333
601.0,0.7767353627469002
602.0,0.352709233865756
603.0,0.3270033859101018
604.0,0.9366269816431426
605.0,0.1712684364999847
606.0,0.5057733075972124
607.0,0.12307733277887999
608.0,0.14808430676916906
609.0,0.5684290738045704
610.0,1.2634097608639012
611.0,1.235166124874599
612.0,4.2405103115337965
613.0,3.099537692868485
614.0,1.8761721981434991
615.0,1.8604104495794058
616.0,2.928391435610539
617.0,4.367348516140253
618.0,4.536062102031928
619.0,5.1508950841649765
620.0,5.576226094322976
621.0,6.003733585482157
622.0,5.692978151777006
623.0,4.622427799943199
624.0,4.507738136015118
625.0,3.784090556812411
626.0,2.8199242881094633
627.0,1.7571681927416054
628.0,1.5851399835531599
629.0,1.6387467056885399
630.0,0.43335319524169846
631.0,0.3467565091401116
632.0,0.8814617109117164
633.0,1.5894793922314043
634.0,1.2857390475489017
635.0,0.35804407338293265
636.0,0.21182157298178805
637.0,1.1582128271384442
638.0,1.1054915759068573
639.0,1.0557821713554574
640.0,1.123473369848969
641.0,1.0277358429016092
642.0,1.0535484114407294
643.0,1.7830491855258626
644.0,1.7748349653907114
645.0,1.0139727752088394
646.0,1.5100090176220324
647.0,2.223093064644414
648.0,2.395570291583046
649.0,2.834954835744593
650.0,4.381951903649637
651.0,3.6901615825503447
652.0,4.031615132444123
653.0,4.008509438754161
654.0,4.657110891302919
655.0,5.857602569720597
656.0,5.480172763685394
657.0,4.889296938336978
658.0,6.208576391700586
659.0,7.624946554412594
660.0,8.736274603364702
661.0,10.450498771549954
662.0,12.799538011553011
663.0,14.573171315724535
664.0,16.434598728208304
665.0,20.295099191744903
666.0,24.64423972468908
667.0,29.919394277472744
668.0,36.9495878370352
669.0,45.46272335190723
670.0,54.08682509128512
671.0,64.28221963942282
672.0,73.40096380150766
673.0,82.9601855952908
674.0,93.5241100104195
675.0,104.54714818940143
676.0,116.08062972561456
677.0,128.73556979982303
678.0,145.12338640831376
679.0,165.25797689129604
680.0,188.1921623786089
681.0,212.0990548669057
682.0,236.94312025071702
683.0,265.36261445927397
684.0,291.5001455457166
685.0,308.9849976452228
686.0,309.23314614255366
687.0,291.4502563026202
688.0,258.84124316749427
689.0,216.8005829232805
690.0,174.86252261194292
691.0,139.85963911778742
692.0,110.92470175319325
693.0,88.7067676100623
694.0,71.07224696492474
695.0,56.833400997164816
696.0,47.40782240510296
697.0,39.76405700307524
698.0,33.5967718375668
699.0,29.82328890700192
700.0,25.97762973380653
701.0,22.608272452441224
702.0,20.569499841661617
703.0,17.804582263347207
704.0,14.378731590303289
705.0,13.619946733077466
706.0,12.454962939028878
707.0,11.120524096664512
708.0,10.067650223377813
709.0,8.813818101252199
710.0,6.904348714747987
711.0,5.005994882171878
712.0,5.724202680938171
713.0,6.23553895830133
714.0,5.598713381556306
715.0,4.182485533795438
716.0,3.6236333647370613
717.0,4.587140514000089
718.0,3.178326462896844
719.0,1.6810549441264953
720.0,2.6904040416751362
721.0,2.1498719666564265
722.0,1.2475472591702037
723.0,1.2133848069858102
724.0,0.48576511740275874
725.0,1.1232034349741185
726.0,1.239490091435625
727.0,0.6699695222372651
728.0,0.6381492789883626
729.0,0.18286492370276494
730.0,0.5056129026281492
731.0,0.06896087821766625
732.0,0.21999592404661036
733.0,0.13589820660271282
734.0,0.6112386680896406
735.0,0.5283678460069715
736.0,0.41823488970505607
737.0,0.7862046574163868
738.0,0.07101563923828498
739.0,0.43898687187484353
740.0,0.5235063096678887
741.0,0.12039099943649952
742.0,0.05939946910774789
743.0,0.6814922844834058
744.0,1.2917122514947401
745.0,0.9319568733630593
746.0,0.28397581375844155
747.0,1.1061400082886192
748.0,1.0905555613047309
749.0,0.4914506144819595
750.0,0.5868697496581297
751.0,1.1507201577067887
752.0,1.7242599926995892
753.0,2.736330015003951
754.0,2.134681644883074
755.0,3.3267391248661142
756.0,3.380016201635987
757.0,2.7083085249189702
758.0,2.4883359995794625
759.0,3.1108743183009064
760.0,3.9369292385931813
761.0,4.133767529703265
762.0,5.396392135106768
763.0,4.5243499605269175
764.0,4.898950514699491
765.0,5.719856049581955
766.0,5.801999390874795
767.0,5.628812854842137
768.0,5.887890326739865
769.0,5.449255179980283
770.0,4.550159390717976
771.0,5.232726920809072
772.0,4.8289314631980265
773.0,3.9085388985750797
774.0,3.5940924301425783
775.0,3.2779828168856504
776.0,3.344817017470319
777.0,3.0508315167133815
778.0,2.095364559615292
779.0,1.5469843071739933
780.0,1.9029177848752954
781.0,2.1429005121728166
782.0,1.720153019045762
783.0,1.7547950757284843
784.0,0.37458381159936516
785.0,1.054497710414484
786.0,0.7699957032625021
787.0,0.5351251413023173
788.0,0.15351764213701535
789.0,0.1831762572325663
790.0,1.0339088543573491
791.0,1.1740664148497224
792.0,0.3588307979786818
793.0,0.843574931954439
794.0,0.28852252807384265
795.0,0.016327885376386114
796.0,0.5495470633128999
797.0,0.5613685011770184
798.0,0.21476180008517493
799.0,0.027516008274757434
800.0,0.28925368858705436
801.0,0.17991677036021383
802.0,0.420692855441461
803.0,0.16186323346555173
804.0,0.1890823223617096
805.0,0.26368460926709997
806.0,0.2578437501349208
807.0,0.1027934040469284
808.0,0.041738455008238425
809.0,0.504379902250193
810.0,0.6870846850829302
811.0,1.1773283396051153
812.0,1.9767668682880586
813.0,0.5121895998165555
814.0,2.1713657521735708
815.0,0.49933447109664625
816.0,0.043549829505139345
817.0,0.04163448156858079
818.0,0.30913486966494946
819.0,0.18885761817002272
820.0,0.02469290987485889
821.0,0.11056158577964423
822.0,0.5385538050467543
823.0,1.283086775469671
824.0,1.9539899130013367
825.0,1.2791596271086632
826.0,0.49456909736359095
827.0,0.5317843436586286
828.0,1.2053252823889595
829.0,1.5795485405191918
830.0,1.2045132626034896
831.0,1.1177462283287831
832.0,1.6028241004123107
833.0,1.090077384699686
834.0,0.5075979036239917
835.0,0.9499077609762829
836.0,1.1987422950329447
837.0,1.128129138246527
838.0,1.3184691213205162
839.0,0.7266451259818666
840.0,1.236637956499414
841.0,1.3500987792874555
842.0,1.5564112024153172
843.0,1.4214220072138097
844.0,1.0561017680647342
845.0,1.8502746551065101
846.0,2.883765581347193
847.0,1.3741758815070941
848.0,1.7543147991550536
849.0,1.2343591002408318
850.0,1.512685967160408
851.0,1.6132570760940965
852.0,1.8199823061531064
853.0,2.129854718728929
854.0,2.004787704246106
855.0,1.343853154094347
856.0,0.9334634712797977
857.0,1.9767121513138026
858.0,1.9090196810960693
859.0,1.8482190627208757
860.0,1.7225892814636734
861.0,1.4827573928546989
862.0,1.3437219756583456
863.0,1.257767631757725
864.0,1.0705578088059673
865.0,1.3447778408255484
866.0,0.9580648595524913
867.0,0.8743217264402988
868.0,1.561004522383073
869.0,1.9148653541585188
870.0,0.9558666543319159
871.0,0.7384839975826825
872.0,2.03597295473656
873.0,1.7216702629926872
874.0,2.8026644459279373
875.0,1.7714232708086846
876.0,1.2082687415293774
877.0,1.3306717446117526
878.0,1.2414096471330502
879.0,0.9243275991670832
880.0,0.8152075781392671
881.0,0.9008641464354309
882.0,1.0304938960675616
883.0,2.126914487482606
884.0,1.3153633098175515
885.0,1.1318174291754959
886.0,1.7623499820479256
887.0,0.7378762936606433
888.0,0.9681458030017212
889.0,2.449430625208652
890.0,1.3845363753118238
891.0,1.1243177989620108
892.0,1.5559753550181912
893.0,1.7497916284245492
894.0,2.2374663133964146
895.0,0.9853952829627715
896.0,1.3374799637412074
897.0,1.9450521796320142
898.0,1.8553078504115554
899.0,2.5594019826983634
900.0,2.7463376829739317
901.0,2.5963131323241426
902.0,2.9006391760815977
903.0,2.8191889278456177
904.0,2.3794142117906807
905.0,3.6073533820419477
906.0,4.008286202914822
907.0,3.4777892369261534
908.0,4.2299844901536305
909.0,4.93940785545024
910.0,4.781843077385572
911.0,4.976143759039166
912.0,3.6198647502897203
913.0,4.3875685129100015
914.0,4.415244933391185
915.0,5.006526946603891
916.0,5.985913223984755
917.0,5.8399934713989055
918.0,5.296590282860781
919.0,4.624731619503717
920.0,4.316013567705217
921.0,4.097728242383566
922.0,4.1399340089747
923.0,4.966051042058449
924.0,4.644440255447774
925.0,3.2031971066206673
926.0,2.230553127956337
927.0,2.287958998544494
928.0,2.4119416519740278
929.0,2.154656731665001
930.0,2.17974614433554
931.0,2.0881584318787945
932.0,1.9649186251395523
933.0,1.422512137704268
934.0,1.5410750867324416
935.0,2.0763793518217897
936.0,1.784284868484701
937.0,1.0759534825223975
938.0,0.8989114335184509
939.0,0.4789191934334047
940.0,1.8063946952208991
941.0,1.4247646114736765
942.0,0.5639517937344478
943.0,0.22470636532849828
944.0,0.9483758634969501
945.0,1.3083492150850335
946.0,1.1121206537520034
947.0,1.322030416617719
948.0,0.2048625710679231
949.0,0.7901976325186891
950.0,0.5891738249338431
951.0,0.5650217286292359
952.0,0.2251097768531657
953.0,0.6313586012308036
954.0,0.6836321336527027
955.0,0.553580265270287
956.0,0.48117841532008454
957.0,0.1539404718507637
958.0,0.25711376208138437
959.0,0.30179100549586296
960.0,0.42141090716848034
961.0,0.07463641414025066
962.0,0.5802724408619114
963.0,0.19486498914480058
964.0,0.5804599084933774
965.0,0.8316220802011676
966.0,0.4414168307771369
967.0,0.7057665390076276
968.0,0.3072421438031135
969.0,0.3120533674956881
970.0,1.2766193873326235
971.0,0.7239368856906454
972.0,1.3046584306604008
973.0,0.41476141823796653
974.0,0.5757649075623452
975.0,0.2160921090280415
976.0,0.6579223262509086
977.0,0.1838029798153574
978.0,0.37030500776013686
979.0,1.1563762076912056
980.0,0.766447463045371
981.0,0.6387693031537116
982.0,1.6999252076583795
983.0,2.2915170689075803
984.0,2.152580841998654
985.0,1.7754295625106908
986.0,2.2475921571907547
987.0,3.6189315476503525
988.0,3.509529175243809
989.0,2.4642143390656805
990.0,6.261402443302593
991.0,6.1274311879663905
992.0,7.872483172242806
993.0,9.711266601095547
994.0,10.596335069048216
995.0,11.227584872976859
996.0,13.353436359142945
997.0,14.961939290535145
998.0,16.883859254280228
999.0,20.470529128681914
1000.0,22.273566083688177
1001.0,24.394038276935092
1002.0,26.607516643499533
1003.0,29.90779690737161
1004.0,32.11354842488998
1005.0,34.1156969182902
1006.0,36.063840943077295
1007.0,38.849205983117535
1008.0,41.52198938502335
1009.0,43.793093333849015
1010.0,45.15606583981486
1011.0,44.2385632718588
1012.0,42.94932582441421
1013.0,40.85916981836148
1014.0,38.398117853204084
1015.0,35.62263168930994
1016.0,32.097471252625446
1017.0,28.270967043912766
1018.0,24.954509681392665
1019.0,21.98384800863477
1020.0,19.119277588179333
1021.0,16.274959235038956
1022.0,13.762357192013152
1023.0,12.570960742256354
1024.0,11.154469780876834
1025.0,10.080903948854907
1026.0,8.67578029961241
1027.0,7.264825180225081
1028.0,6.83828618094461
1029.0,6.784654686858007
1030.0,6.219483318843103
1031.0,5.7992732884298235
1032.0,5.062896813679682
1033.0,4.277904701249057
1034.0,4.776945612130025
1035.0,4.385343655840425
1036.0,5.942776624799361
1037.0,6.647131701790295
1038.0,7.961257719454249
1039.0,8.517733150380234
1040.0,8.821901002101525
1041.0,9.403691536446253
1042.0,11.315417420459658
1043.0,13.43925274314431
1044.0,15.821280471245416
1045.0,18.27429851612602
1046.0,19.62889901516789
1047.0,23.452385399078864
1048.0,29.040432398494808
1049.0,31.331001477092826
1050.0,36.893587802988
1051.0,42.872803287722654
1052.0,48.948382813678876
1053.0,55.58928279088185
1054.0,62.607811877467
1055.0,71.00779826639125
1056.0,80.609167433219
1057.0,89.91566168267669
1058.0,99.37298453626917
1059.0,111.15306169425197
1060.0,122.6174004015622
1061.0,132.65060723673128
1062.0,142.52422165783676
1063.0,154.7839764660484
1064.0,163.26023689546602
1065.0,167.00929480176626
1066.0,171.00388790658243
1067.0,172.5170793630796
1068.0,171.01363989507948
1069.0,165.2870708859234
1070.0,157.80051389559284
1071.0,150.4688158454427
1072.0,139.0032728817934
1073.0,128.16086303860124
1074.0,117.63056788119506
1075.0,107.36852560443799
1076.0,97.76622460470536
1077.0,89.07205393445656
1078.0,80.07407968061906
1079.0,71.99933397194009
1080.0,63.62895803923885
1081.0,57.293892207622456
1082.0,51.376830585640484
1083.0,45.81590537348757
1084.0,41.39612168805788
1085.0,36.334989786773065
1086.0,33.00937414592563
1087.0,28.664990066542966
1088.0,25.370914940062118
1089.0,20.60382278291169
1090.0,18.711835435873216
1091.0,17.11130168854757
1092.0,15.83988870422083
1093.0,13.754837194396961
1094.0,12.187001434621187
1095.0,10.80975455492252
1096.0,8.922443074619057
1097.0,7.369789979314668
1098.0,6.6432876232886215
1099.0,5.841560921636645
1100.0,4.65400178866358
1101.0,3.6200064793365936
1102.0,2.7424677162471776
1103.0,2.0116213627116517
1104.0,1.0985461905578064
1105.0,2.208711196717177
1106.0,1.7448386971190148
1107.0,1.8368137992453828
1108.0,1.3588490523388244
1109.0,1.3681551253467945
1110.0,1.0838443513133473
1111.0,0.5837993252745298
1112.0,0.5902901937668991
1113.0,0.03699209439735144
1114.0,0.15641786895445775
1115.0,0.44891928986688134
1116.0,0.3484829300643639
1117.0,0.13429835825054068
1118.0,0.08417792583626055
1119.0,0.36164172092559005
1120.0,0.07319446754814335
1121.0,0.2655332149914888
1122.0,0.6131658348012211
1123.0,0.18177517473629148
1124.0,0.14500772682934157
1125.0,0.8770714023583288
1126.0,0.8069104659405945
1127.0,0.21589076649341404
1128.0,0.9920115883694115
1129.0,1.490726545111338
1130.0,2.4268576836169826
1131.0,1.5822051847409306
1132.0,2.2769786411986974
1133.0,3.0904099169214394
1134.0,3.198347892344268
1135.0,3.6960156945452813
1136.0,4.061138741824025
1137.0,3.8415416860098777
1138.0,4.664651619093948
1139.0,5.101674025660135
1140.0,5.566579565198452
1141.0,5.865947458140202
1142.0,5.739815160947988
1143.0,5.839971804113725
1144.0,5.62783985723912
1145.0,5.467849741440066
1146.0,4.37379913418949
1147.0,4.630884652025647
1148.0,5.40768169225816
1149.0,5.512170163647828
1150.0,3.982870256679614
1151.0,4.101995295534563
1152.0,3.6030360546143028
1153.0,2.214947853062299
1154.0,2.2649011360364346
1155.0,1.805886327756519
1156.0,1.0365003112917726
1157.0,0.8304301738732295
1158.0,0.3029295217286319
1159.0,0.29524350261388904
1160.0,0.07908052789221785
1161.0,0.5698776743229184
1162.0,0.1424531224153242
1163.0,0.4491916968197984
1164.0,0.18178031281715806
1165.0,0.8395785541933581
1166.0,0.7238223611783425
1167.0,0.619397558042537
1168.0,0.31878143262331154
1169.0,0.017526200766541128
1170.0,0.6339504862542277
1171.0,1.5526977779256486
1172.0,0.09370734084473945
1173.0,0.2854319832570468
1174.0,0.4714156679506309
1175.0,0.13664608222144342
1176.0,0.03054170038688649
1177.0,0.3727217283406389
1178.0,0.7237280034741741
1179.0,0.21485041327657473
1180.0,0.4767606274565662
1181.0,0.22366951661730625
1182.0,0.997112840683801
1183.0,1.4981930323020511
1184.0,0.6907556066866058
1185.0,1.9704339999999998
1186.0,1.615767515381583
1187.0,0.9786992187000764
1188.0,1.1448267014793607
1189.0,1.5102303326417361
1190.0,2.6148696651078644
1191.0,2.5925546999932028
1192.0,1.4817310605303644
1193.0,1.9367423367148713
1194.0,2.5227615588051746
1195.0,2.2362911086862893
1196.0,2.189555098582132
1197.0,1.4185470221308212
1198.0,1.841924563259997
1199.0,2.0921260325266164
1200.0,2.5500990030977246
1201.0,2.4251505005244463
1202.0,2.1108142204360214
1203.0,1.7707176295696507
1204.0,2.084189583610125
1205.0,1.5081612227239503
1206.0,2.9410511255236758
1207.0,2.492826254248046
1208.0,2.2366462013335395
1209.0,2.452487952128526
1210.0,2.0724933225665922
1211.0,3.0721728627220237
1212.0,2.9723856439507568
1213.0,2.414155783776142
1214.0,2.913747809930474
1215.0,3.2986410635420746
1216.0,3.0974625310065558
1217.0,2.8485177948897857
1218.0,3.033695659849765
1219.0,3.8020040126162407
1220.0,4.160360649597031
1221.0,3.807094651083436
1222.0,4.097381550233652
1223.0,2.9947223575760025
1224.0,3.161536292987807
1225.0,3.7068062650400715
1226.0,3.611146612537018
1227.0,2.6726961709915096
1228.0,3.052393204513446
1229.0,3.584011343584464
1230.0,4.085365906135137
1231.0,4.435320878720508
1232.0,3.5899616765569573
1233.0,3.9791051605123657
1234.0,4.810919865720859
1235.0,5.082618794585838
1236.0,4.981761996123222
1237.0,4.17083894514341
1238.0,3.910022802278636
1239.0,4.50709249319153
1240.0,4.359579761303427
1241.0,4.466105850970033
1242.0,3.77270508233143
1243.0,3.1109186832806723
1244.0,1.981687013971291
1245.0,2.9274262677471445
1246.0,2.7769737889586668
1247.0,2.206491046027337
1248.0,1.2161862053034156
1249.0,1.7310932001857582
1250.0,2.343311973865143
1251.0,1.0854716315976527
1252.0,0.6981282084154067
1253.0,1.0100516834908995
1254.0,1.1911570633494901
1255.0,1.4290267249026942
1256.0,0.2716795106484921
1257.0,0.8386119513983448
1258.0,1.543991123522597
1259.0,0.9511220757214379
1260.0,0.37679340566728486
1261.0,0.3591439177354029
1262.0,0.8471820484354892
1263.0,0.7505906170943019
1264.0,0.6655370316535505
1265.0,1.598573180701715
1266.0,1.1391152694632585
1267.0,0.12521489933446295
1268.0,1.444277027058569
1269.0,1.0000707588826272
1270.0,0.46767178615028354
1271.0,0.03875154028896728
1272.0,0.5714139161756664
1273.0,0.45745850816232186
1274.0,0.38826429902932424
1275.0,0.9193957301713886
1276.0,0.023426745375751186
1277.0,0.8861858980448029
1278.0,0.012730681681271554
1279.0,0.0
1280.0,0.0
1281.0,0.0
1282.0,0.0
1283.0,0.0
1284.0,0.0
1285.0,0.0
1286.0,0.0
1287.0,0.0
1288.0,0.0
1289.0,0.0
1290.0,0.0
1291.0,0.0
1292.0,0.0
1293.0,0.0
1294.0,0.0
1295.0,0.0
1296.0,0.0
1297.0,0.0
1298.0,0.0
1299.0,0.0
1300.0,0.0
1301.0,0.0
1302.0,0.0
1303.0,0.0
1304.0,0.0
1305.0,0.0
1306.0,0.0
1307.0,0.0
1308.0,0.0
1309.0,0.0
1310.0,0.0
1311.0,0.0
1312.0,0.0
1313.0,0.0
1314.0,0.0
1315.0,0.0
1316.0,0.0
1317.0,0.0
1318.0,0.0
1319.0,0.0
1320.0,0.0
1321.0,0.0
1322.0,0.0
1323.0,0.0
1324.0,0.0
1325.0,0.0
1326.0,0.0
1327.0,0.0
1328.0,0.0
1329.0,0.0
1330.0,0.0
1331.0,0.0
1332.0,0.0
1333.0,0.0
1334.0,0.0
1335.0,0.0
1336.0,0.0
1337.0,0.0
1338.0,0.0
1339.0,0.0
1340.0,0.0
1341.0,0.0
1342.0,0.0
1343.0,0.0
1344.0,0.0
1345.0,0.0
1346.0,0.0
1347.0,0.0
1348.0,0.0
1349.0,0.0
1350.0,0.0
1351.0,0.0
1352.0,0.0
1353.0,0.0
1354.0,0.0
1355.0,0.0
1356.0,0.0
1357.0,0.0
1358.0,0.0
1359.0,0.0
1360.0,0.0
1361.0,0.0
1362.0,0.0
1363.0,0.0
1364.0,0.0
1365.0,0.0
1366.0,0.0
1367.0,0.0
1368.0,0.0
1369.0,0.0
1370.0,0.0
1371.0,0.0
1372.0,0.0
1373.0,0.0
1374.0,0.0
1375.0,0.0
1376.0,0.0
1377.0,0.0
1378.0,0.0
1379.0,0.0
1380.0,0.0
1381.0,0.0
1382.0,0.0
1383.0,0.0
1384.0,0.0
1385.0,0.0
1386.0,0.0
1387.0,0.0
1388.0,0.0
1389.0,0.0
1390.0,0.0
1391.0,0.0
1392.0,0.0
1393.0,0.0
1394.0,0.0
1395.0,0.0
1396.0,0.0
1397.0,0.0
1398.0,0.0
1399.0,0.0
1400.0,0.0
1401.0,0.0
1402.0,0.0
1403.0,0.0
1404.0,0.0
1405.0,0.0
1406.0,0.0
1407.0,0.0
1408.0,0.0
1409.0,0.0
1410.0,0.0
1411.0,0.0
1412.0,0.0
1413.0,0.0
1414.0,0.0
1415.0,0.0
1416.0,0.0
1417.0,0.0
1418.0,0.0
1419.0,0.0
1420.0,0.0
1421.0,0.0
1422.0,0.0
1423.0,0.0
1424.0,0.0
1425.0,0.0
1426.0,0.0
1427.0,0.0
1428.0,0.0
1429.0,0.0
1430.0,0.0
1431.0,0.0
1432.0,0.0
1433.0,0.0
1434.0,0.0
1435.0,0.0
1436.0,0.0
1437.0,0.0
1438.0,0.0
1439.0,0.0
1440.0,0.0
1441.0,0.0
1442.0,0.0
1443.0,0.0
1444.0,0.0
1445.0,0.0
1446.0,0.0
1447.0,0.0
1448.0,0.0
1449.0,0.0
1450.0,0.0
1451.0,0.0
1452.0,0.0
1453.0,0.0
1454.0,0.0
1455.0,0.0
1456.0,0.0
1457.0,0.0
1458.0,0.0
1459.0,0.0
1460.0,0.0
1461.0,0.0
1462.0,0.0
1463.0,0.0
1464.0,0.0
1465.0,0.0
1466.0,0.0
1467.0,0.0
1468.0,0.0
1469.0,0.0
1470.0,0.0
1471.0,0.0
1472.0,0.0
1473.0,0.0
1474.0,0.0
1475.0,0.0
1476.0,0.0
1477.0,0.0
1478.0,0.0
1479.0,0.0
1480.0,0.0
1481.0,0.0
1482.0,0.0
1483.0,0.0
1484.0,0.0
1485.0,0.0
1486.0,0.0
1487.0,0.0
1488.0,0.0
1489.0,0.0
1490.0,0.0
1491.0,0.0
1492.0,0.0
1493.0,0.0
1494.0,0.0
1495.0,0.0
1496.0,0.0
1497.0,0.0
1498.0,0.0
1499.0,0.0
1500.0,0.0
1501.0,0.0
1502.0,0.0
1503.0,0.0
1504.0,0.0
1505.0,0.0
1506.0,0.0
1507.0,0.0
1508.0,0.0
1509.0,0.0
1510.0,0.0
1511.0,0.0
1512.0,0.0
1513.0,0.0
1514.0,0.0
1515.0,0.0
1516.0,0.0
1517.0,0.0
1518.0,0.0
1519.0,0.0
1520.0,0.0
1521.0,0.0
1522.0,0.0
1523.0,0.0
1524.0,0.0
1525.0,0.0
1526.0,0.0
1527.0,0.0
1528.0,0.0
1529.0,0.0
1530.0,0.0
1531.0,0.0
1532.0,0.0
1533.0,0.0
1534.0,0.0
1535.0,0.0
1536.0,0.0
1537.0,0.0
1538.0,0.0
1539.0,0.0
1540.0,0.0
1541.0,0.0
1542.0,0.0
1543.0,0.0
1544.0,0.0
1545.0,0.0
1546.0,0.0
1547.0,0.0
1548.0,0.0
1549.0,0.0
1550.0,0.0
1551.0,0.0
1552.0,0.0
1553.0,0.0
1554.0,0.0
1555.0,0.0
1556.0,0.0
1557.0,0.0
1558.0,0.0
1559.0,0.0
1560.0,0.0
1561.0,0.0
1562.0,0.0
1563.0,0.0
1564.0,0.0
1565.0,0.0
1566.0,0.0
1567.0,0.0
1568.0,0.0
1569.0,0.0
1570.0,0.0
1571.0,0.0
1572.0,0.0
1573.0,0.0
1574.0,0.0
1575.0,0.0
1576.0,0.0
1577.0,0.0
1578.0,0.0
1579.0,0.0
1580.0,0.0
1581.0,0.0
1582.0,0.0
1583.0,0.0
1584.0,0.0
1585.0,0.0
1586.0,0.0
1587.0,0.0
1588.0,0.0
1589.0,0.0
1590.0,0.0
1591.0,0.0
1592.0,0.0
1593.0,0.0
1594.0,0.0
1595.0,0.0
1596.0,0.0
1597.0,0.0
1598.0,0.0
1599.0,0.0
