0.0,0.0
1.0,0.0
2.0,0.0
3.0,0.0
4.0,0.0
5.0,0.0
6.0,0.0
7.0,0.0
8.0,0.0
9.0,0.0
10.0,0.0
11.0,0.0
12.0,0.0
13.0,0.0
14.0,0.0
15.0,0.0
16.0,0.0
17.0,0.0
18.0,0.0
19.0,0.0
20.0,0.0
21.0,0.0
22.0,0.0
23.0,0.0
24.0,0.0
25.0,0.0
26.0,0.0
27.0,0.0
28.0,0.0
29.0,0.0
30.0,0.0
31.0,0.0
32.0,0.0
33.0,0.0
34.0,0.0
35.0,0.0
36.0,0.0
37.0,0.0
38.0,0.0
39.0,0.0
40.0,0.0
41.0,0.0
42.0,0.0
43.0,0.0
44.0,0.0
45.0,0.0
46.0,0.0
47.0,0.0
48.0,0.0
49.0,0.0
50.0,0.0
51.0,0.0
52.0,0.0
53.0,0.0
54.0,0.0
55.0,0.0
56.0,0.0
57.0,0.0
58.0,0.0
59.0,0.0
60.0,0.0
61.0,0.0
62.0,0.0
63.0,0.0
64.0,0.0
65.0,0.0
66.0,0.0
67.0,0.0
68.0,0.0
69.0,0.0
70.0,0.0
71.0,0.0
72.0,0.0
73.0,0.0
74.0,0.0
75.0,0.0
76.0,0.0
77.0,0.0
78.0,0.0
79.0,0.0
80.0,0.0
81.0,0.0
82.0,0.0
83.0,0.0
84.0,0.0
85.0,0.0
86.0,0.0
87.0,0.0
88.0,0.0
89.0,0.0
90.0,0.0
91.0,0.0
92.0,0.0
93.0,0.0
94.0,0.0
95.0,0.0
96.0,0.0
97.0,0.0
98.0,0.0
99.0,0.0
100.0,0.0
101.0,0.0
102.0,0.0
103.0,0.0
104.0,0.0
105.0,0.0
106.0,0.0
107.0,0.0
108.0,0.0
109.0,0.0
110.0,0.0
111.0,0.0
112.0,0.0
113.0,0.0
114.0,0.0
115.0,0.0
116.0,0.0
117.0,0.0
118.0,0.0
119.0,0.0
120.0,0.0
121.0,0.0
122.0,0.0
123.0,0.0
124.0,0.0
125.0,0.0
126.0,0.0
127.0,0.8210442751484428
128.0,1.0535865684871644
129.0,3.676979410236428
130.0,3.238025701364132
131.0,3.7954559311443226
132.0,3.4268803208172014
133.0,2.650153353850023
134.0,2.2198542308284805
135.0,3.210541727496883
136.0,4.761740532878226
137.0,5.558937004398918
138.0,4.282337384973957
139.0,5.016799258186997
140.0,4.841394519315089
141.0,4.453345256416535
142.0,4.01335941527553
143.0,2.9228152252726542
144.0,2.08856884166477
145.0,0.3150979018418163
146.0,0.861822714461397
147.0,0.020797551223832488
148.0,0.16504190708525307
149.0,0.03877492150467822
150.0,0.5329131553962266
151.0,1.0361355215379364
152.0,0.8732304169612566
153.0,1.9067609225147535
154.0,2.064993271279861
155.0,0.9670152290628743
156.0,2.3140217132115377
157.0,3.115960697576429
158.0,3.4320991095293105
159.0,3.3099091504501463
160.0,3.1080556738018172
161.0,4.348510565712627
162.0,4.772579863161073
163.0,5.181146190250489
164.0,5.470750404917385
165.0,4.73179052171857
166.0,4.526919801184992
167.0,5.355106555316005
168.0,6.953607341593633
169.0,7.0782671250333955
170.0,5.290926503438892
171.0,6.339805655433064
172.0,8.16314077941727
173.0,7.652948413014819
174.0,8.030737395758223
175.0,7.753376345114643
176.0,7.259272623051197
177.0,7.121480293629213
178.0,6.696839000110934
179.0,7.9996958954580135
180.0,7.965133589170686
181.0,6.355483198164639
182.0,5.7484551511745465
183.0,4.919033273731149
184.0,4.299091293070383
185.0,4.096884518880696
186.0,4.130664348233709
187.0,2.2223098249682924
188.0,0.9026927725095469
189.0,1.2093352320421922
190.0,2.622201528963659
191.0,2.709544342677126
192.0,2.1270317190158545
193.0,2.132599988553578
194.0,2.3948987431544677
195.0,1.6041405318545217
196.0,2.1697751166214796
197.0,0.5487061368973678
198.0,1.6820357637252425
199.0,1.079040458560782
200.0,0.8658322286288159
201.0,0.3146699020576148
202.0,1.9909343038468097
203.0,1.7332746160916264
204.0,-0.03496426927200633
205.0,0.6628557648343091
206.0,1.7376523430345132
207.0,1.83148544169364
208.0,0.9605969564912707
209.0,0.31844521544336996
210.0,1.350367492590213
211.0,2.551091148551275
212.0,2.8248291571237947
213.0,2.9842316239300826
214.0,1.001691489088054
215.0,0.673255473243457
216.0,2.3800234316017614
217.0,1.9716341491491236
218.0,0.4278023390041791
219.0,1.12501865311505
220.0,3.810652719663181
221.0,3.7372069814177657
222.0,3.7760070150341654
223.0,3.21585381768371
224.0,2.8598331749533172
225.0,3.4804190791393568
226.0,5.0993332491373975
227.0,5.2932403178275855
228.0,3.875743993123645
229.0,3.8881711445203546
230.0,6.134167036126235
231.0,7.392379757559336
232.0,6.152998674397894
233.0,6.134544740012918
234.0,6.776199555567164
235.0,5.972404955562915
236.0,6.011830422376324
237.0,7.319420930852126
238.0,7.644154591783037
239.0,6.617849643874095
240.0,7.957634256432582
241.0,8.75568266926943
242.0,8.616096601174739
243.0,8.629851675519857
244.0,10.525845036984101
245.0,10.845677927138665
246.0,10.252558617887432
247.0,9.835045118693051
248.0,10.020853330136095
249.0,9.553810425586903
250.0,8.228808567187368
251.0,7.40974214877752
252.0,6.937925346139615
253.0,6.48060935346187
254.0,7.967023524605177
255.0,4.306146713033868
256.0,1.6981410059744313
257.0,2.3769800434600428
258.0,2.3964148322143957
259.0,1.9594829366748754
260.0,1.643375643233612
261.0,1.896847604156837
262.0,2.384376779895019
263.0,1.2847336997101737
264.0,3.251355043050469
265.0,3.0230436535912135
266.0,1.8663421626551744
267.0,4.190219946091862
268.0,1.4480705723066265
269.0,2.702325239253614
270.0,4.229182819225205
271.0,2.788974275850971
272.0,0.8175131710657898
273.0,0.9503243641044956
274.0,1.4107828262367628
275.0,1.3168945588103544
276.0,1.146514721162846
277.0,2.5060494836031535
278.0,2.180484374197563
279.0,2.6335728068117725
280.0,4.253865818778862
281.0,4.884687114147765
282.0,1.8232377835129436
283.0,1.8022038360803017
284.0,2.90722294842169
285.0,3.4461461751857785
286.0,4.7693110804087375
287.0,5.763668919225394
288.0,6.916733193324691
289.0,7.305272837429131
290.0,6.342070701716403
291.0,5.963757208504026
292.0,6.941340481284196
293.0,8.520030686644336
294.0,9.3501361505016
295.0,8.687671166847712
296.0,7.204057410456155
297.0,7.756332447178872
298.0,7.894709161273255
299.0,6.955121538342978
300.0,6.711276363291613
301.0,8.324125419492828
302.0,8.916541407396952
303.0,7.431860778211289
304.0,5.700055983725131
305.0,8.84536959157754
306.0,7.347123100276303
307.0,7.556438187835794
308.0,8.367427739899437
309.0,7.047075235096215
310.0,8.108807866286705
311.0,7.837546048279351
312.0,8.341078554751151
313.0,9.342666354902654
314.0,9.008422361463246
315.0,11.408310075069364
316.0,12.103401929926468
317.0,12.908194562576004
318.0,14.43248123109438
319.0,14.817213604647431
320.0,16.019574017035676
321.0,17.75680124434068
322.0,18.099578147305206
323.0,17.698986813556264
324.0,19.308084271098455
325.0,18.90289601255608
326.0,17.721304331548787
327.0,15.636575725036174
328.0,12.552435501508732
329.0,9.034650834400868
330.0,8.32257936188359
331.0,7.367091417708723
332.0,6.417029335237843
333.0,5.7587139800947895
334.0,1.2992875701205517
335.0,2.426227117061225
336.0,1.2607509991155115
337.0,0.7403807142617234
338.0,1.0939141089562736
339.0,0.14777329496591554
340.0,0.4567926255699731
341.0,0.09096661835470123
342.0,0.2463972666080837
343.0,0.1572421514345399
344.0,1.7245460620816984
345.0,0.9297529455047129
346.0,0.15230372568577305
347.0,0.6924330726347919
348.0,1.2602148746765744
349.0,0.6795323404825404
350.0,0.7375591994907039
351.0,0.1468370751452972
352.0,1.326842453845044
353.0,1.6685444817991284
354.0,0.15259854054883923
355.0,0.21610899509914883
356.0,1.0054195564183923
357.0,0.5144387441163926
358.0,1.009343733552129
359.0,2.064319206816177
360.0,0.7532599802483457
361.0,0.1881080608075746
362.0,0.24374813945745005
363.0,0.77418575723725
364.0,1.1558966830348094
365.0,0.4738806873940285
366.0,0.49802303372581785
367.0,1.6467195392406584
368.0,2.4046175201238684
369.0,0.871761996863041
370.0,1.5405537627697325
371.0,2.4452508718971386
372.0,2.7738034980923354
373.0,4.021661442129098
374.0,4.647860298750244
375.0,5.344979449594383
376.0,5.234474940929584
377.0,4.779166085889979
378.0,6.469177692758388
379.0,8.911828890431792
380.0,8.113733570358004
381.0,8.870392244581527
382.0,12.563527684245386
383.0,13.202452733365472
384.0,16.00419278310415
385.0,18.658915538848188
386.0,21.193915892452825
387.0,23.288103021184234
388.0,24.345954429625227
389.0,27.2299539102551
390.0,31.926409919135576
391.0,38.45868513379957
392.0,44.37418103903403
393.0,48.03154157762747
394.0,53.44276386443765
395.0,60.21050756376974
396.0,65.9650167050653
397.0,71.68623326436004
398.0,78.57642504044152
399.0,80.97525041399709
400.0,80.28990731070753
401.0,77.0294703025751
402.0,71.261617872358
403.0,63.14214544747003
404.0,53.92646896296957
405.0,45.24053576566984
406.0,37.810574249778426
407.0,32.324481255451474
408.0,28.30691434704655
409.0,22.8660230951176
410.0,18.787632371560324
411.0,15.274736415432047
412.0,15.026875380642059
413.0,17.42745466928567
414.0,15.34527567389095
415.0,14.38276617032437
416.0,13.078312428534531
417.0,11.787660391028178
418.0,11.631650419055495
419.0,13.424138431572308
420.0,12.39382341745447
421.0,11.230460705317595
422.0,11.845092234259699
423.0,13.39671596081621
424.0,12.669930546419579
425.0,12.023867090308086
426.0,11.279117536354232
427.0,9.38863473524619
428.0,8.626771936675963
429.0,10.112659727265463
430.0,7.931125752566091
431.0,6.251297041011452
432.0,6.992691325328935
433.0,8.47869345638798
434.0,9.241752609559354
435.0,9.581879484467226
436.0,9.172820297061385
437.0,8.817815194735623
438.0,9.022814179852494
439.0,9.086530686345185
440.0,7.123983954238658
441.0,7.761962078518096
442.0,9.037013012340761
443.0,10.491421032686102
444.0,11.37186502530874
445.0,10.585347404366658
446.0,9.200282102375512
447.0,8.676378185116882
448.0,8.276457645626188
449.0,7.538972449795987
450.0,6.429217402681535
451.0,5.078168586720826
452.0,5.687079403125138
453.0,5.17009271735101
454.0,4.470234519339275
455.0,4.368438267512875
456.0,3.5224704533065827
457.0,3.1109999307434872
458.0,2.5652999659845377
459.0,3.4449866268793516
460.0,4.83612375559618
461.0,3.5484268770172087
462.0,2.9396161079009056
463.0,2.496466352735626
464.0,2.7065069130530617
465.0,3.2558039934753147
466.0,3.1543334655561717
467.0,1.9263864937316912
468.0,1.54763346059774
469.0,2.119785774260999
470.0,2.7263769416367647
471.0,3.2355779627067274
472.0,4.105338993272817
473.0,2.039866214365422
474.0,1.1498292228324973
475.0,0.6374114426353452
476.0,0.1453872316915307
477.0,0.35535060851981626
478.0,2.174325018548876
479.0,0.3065307341456289
480.0,1.0246621530652693
481.0,1.1365866379489928
482.0,0.7606512568334872
483.0,0.043693696582365465
484.0,1.0594988761587882
485.0,1.8457145459713884
486.0,1.3967546644730902
487.0,0.6057078216664835
488.0,0.3558269507813795
489.0,0.1172748888911957
490.0,1.9031747416872284
491.0,2.0329082995762398
492.0,0.9414506236297024
493.0,0.3239251875491153
494.0,1.4277323893150926
495.0,0.17112068553617787
496.0,1.1296641717066933
497.0,0.41210923790958026
498.0,0.41603658726986104
499.0,0.23156760517008243
500.0,0.6827066451089646
501.0,0.7425076957149038
502.0,1.3466459457856486
503.0,2.2621109798020314
504.0,2.681476264577955
505.0,2.1124722110393983
506.0,1.5682504095763998
507.0,2.3480284344605162
508.0,1.905394320425046
509.0,1.961523001182052
510.0,3.4275744585556724
511.0,3.2286758042190637
512.0,2.3238134345626755
513.0,3.1204950477111137
514.0,4.2070774679841705
515.0,3.7393028464459066
516.0,2.4199910329344037
517.0,4.433430521334623
518.0,4.591492179575357
519.0,6.225856423396294
520.0,6.001340624920617
521.0,4.435016556630712
522.0,5.3619079284656115
523.0,3.861907189099067
524.0,4.966439609326782
525.0,3.9375319407632476
526.0,3.410639167303581
527.0,5.863079076836395
528.0,7.479351221003177
529.0,7.893224931594437
530.0,6.990059994840029
531.0,6.792352729481453
532.0,7.037127397387891
533.0,6.749126711922127
534.0,6.476228780064536
535.0,5.963122672399098
536.0,5.2618959267489505
537.0,3.897925570460123
538.0,2.7456608107973826
539.0,3.3762068752403893
540.0,5.837737698340466
541.0,3.049520167999382
542.0,4.180241534851115
543.0,4.353449991006235
544.0,2.089687180783219
545.0,2.9995811568935795
546.0,2.6700421080828955
547.0,1.4094107837859318
548.0,1.9988763122302307
549.0,3.350570312244957
550.0,3.80273332271358
551.0,2.4944922516836754
552.0,3.2484021242085506
553.0,2.3319706285521673
554.0,3.7976498424357463
555.0,6.065803970957982
556.0,5.797885275928878
557.0,4.019926884278528
558.0,4.872989271879185
559.0,5.371390510809163
560.0,3.4957690026435135
561.0,2.29988101869986
562.0,4.036455967347503
563.0,5.129572552041078
564.0,2.8336203142986234
565.0,3.68984692883432
566.0,4.798890932811241
567.0,4.742355713366109
568.0,4.207413406618438
569.0,3.884450310056831
570.0,5.2611824059588175
571.0,5.286073065546887
572.0,5.80295038968685
573.0,6.5198815434372825
574.0,6.228377658930593
575.0,6.2004248086872735
576.0,6.7213764179697995
577.0,4.743783531149379
578.0,4.493616808069685
579.0,5.7418990712528375
580.0,5.750585545720932
581.0,3.8050472390119556
582.0,3.215893613276451
583.0,3.8810516150665944
584.0,2.5170927004737518
585.0,1.924669878445516
586.0,4.421361759340886
587.0,3.8666755810122457
588.0,3.363083604843572
589.0,3.2808502469595586
590.0,2.2995714300321377
591.0,2.3244807077180054
592.0,3.7660786969477495
593.0,2.0171560979973435
594.0,0.919029649797911
595.0,0.26807628707521536
596.0,0.4762476711622614
597.0,2.115630640716194
598.0,2.174498797867915
599.0,1.759081956314634
600.0,2.585204324819276
601.0,0.8828837030033994
602.0,0.4417399796502417
603.0,0.9336079318564793
604.0,0.6268915787572926
605.0,0.14798466610131095
606.0,1.0023393651559613
607.0,0.9143188780870574
608.0,0.4513807742376777
609.0,0.749233536053185
610.0,0.4059402002773788
611.0,0.03442846542757568
612.0,0.12320091300783848
613.0,1.6562461255754222
614.0,1.3145807055374608
615.0,1.2978797446688817
616.0,0.9097780584510173
617.0,0.6455878301983605
618.0,0.9997946334737662
619.0,0.7117430903336833
620.0,0.33997283272970985
621.0,0.918255592931816
622.0,0.43082724401418515
623.0,0.8922384622205384
624.0,2.2619611640689166
625.0,0.22896440157999437
626.0,0.8502242610450883
627.0,0.9754644194449621
628.0,0.8227646625948829
629.0,1.1822574630850244
630.0,0.518663411511651
631.0,-0.0025424999037209975
632.0,0.9741585214316606
633.0,1.6276468607755505
634.0,1.3457529948387759
635.0,1.1547691366074972
636.0,1.6381012332214389
637.0,1.0364310256473037
638.0,1.421430486081221
639.0,2.4121106034751385
640.0,2.567392184331704
641.0,2.237082627369208
642.0,1.590885948690974
643.0,0.353388387588223
644.0,2.4044600776074314
645.0,2.3996705156142597
646.0,1.266524048777897
647.0,2.1151055593848063
648.0,3.1846381791770075
649.0,2.0067783010669227
650.0,2.4380428479028518
651.0,1.186060986269438
652.0,2.35073886074183
653.0,3.2727888059322607
654.0,3.1121333056226064
655.0,2.4400528559218047
656.0,2.169271423015931
657.0,3.233178797011556
658.0,3.128889789046618
659.0,2.995273031594868
660.0,2.7700478860134847
661.0,2.969230046321195
662.0,4.758977089273731
663.0,8.068575307827123
664.0,5.442651711266302
665.0,8.720777423545192
666.0,8.748750545900164
667.0,8.357193706279986
668.0,10.753930162933468
669.0,13.976396849137508
670.0,17.495945131701006
671.0,21.0886864912883
672.0,23.86106884044218
673.0,27.99190322482599
674.0,32.44842355896607
675.0,36.7295037106882
676.0,43.089452161345875
677.0,49.861667750841505
678.0,55.892370348624475
679.0,64.98769238188686
680.0,76.62295064485691
681.0,89.78848269546253
682.0,104.21950211512578
683.0,118.07515405068311
684.0,130.68251119650012
685.0,139.63232837329318
686.0,142.80386829283282
687.0,139.25598550574898
688.0,127.9868093832807
689.0,109.62824285743335
690.0,89.83904346330989
691.0,75.52792075852821
692.0,61.55331673865922
693.0,50.64444697370056
694.0,42.44300047205174
695.0,34.67611643710219
696.0,27.96983834816013
697.0,22.990875071170016
698.0,19.939921341677113
699.0,17.212102960520628
700.0,14.040583075914068
701.0,11.479409546600792
702.0,10.944987420615476
703.0,11.890198025633161
704.0,7.984811897001584
705.0,8.254788141897604
706.0,8.734513446501374
707.0,6.937362140408064
708.0,5.074591960240258
709.0,4.5318677448471965
710.0,3.8231851748926178
711.0,5.701756712781559
712.0,4.264989774241383
713.0,2.365904323765963
714.0,2.6000365853162126
715.0,1.9405294907589141
716.0,0.08407197709479061
717.0,1.846463299422015
718.0,2.0126291067982267
719.0,2.38224340515571
720.0,3.0765981844443457
721.0,2.207158313690856
722.0,1.1365317890004578
723.0,0.7158896932824608
724.0,0.173259720025111
725.0,0.28371217050906467
726.0,1.2921842407415762
727.0,0.00238170538380919
728.0,0.09736449252533262
729.0,0.3467705329015647
730.0,0.15004956900767916
731.0,0.8595486644046596
732.0,0.03394068207968278
733.0,0.09945914260900984
734.0,0.5142818748876754
735.0,0.7008801494088726
736.0,1.6440350270239907
737.0,1.119769859143279
738.0,1.0101945249499515
739.0,0.8670386709172848
740.0,0.8631399568345755
741.0,0.3537799091270292
742.0,1.1804157430929965
743.0,1.6594388890586371
744.0,1.177153565057374
745.0,1.8266780562487748
746.0,1.3042464609685898
747.0,-0.04319121079684203
748.0,1.5439283764144127
749.0,1.381644656957168
750.0,0.9386681295233593
751.0,1.4904715185953439
752.0,2.31067526353771
753.0,2.9546768840482107
754.0,1.8100955006600168
755.0,1.967352233433247
756.0,1.453515392096372
757.0,0.24956966607322423
758.0,0.9671580932838912
759.0,2.493216460766355
760.0,1.217708233680285
761.0,0.1851294787335509
762.0,0.19373645935686554
763.0,1.863552164716888
764.0,2.776526043149387
765.0,3.3838527740309465
766.0,2.811132119375123
767.0,0.5105225497907
768.0,0.7045578820208679
769.0,1.1025179842658988
770.0,1.8896828692393357
771.0,0.9427106176454438
772.0,1.8567375155412462
773.0,2.6507099587214054
774.0,1.5312521795754483
775.0,0.9275835493846505
776.0,2.1374553857910734
777.0,1.1393160429511022
778.0,1.3439013418353711
779.0,1.6138390023903086
780.0,2.2257722847349957
781.0,1.5345723019715336
782.0,0.3762756920545717
783.0,2.6417226986556477
784.0,1.2434748201563366
785.0,0.22906535595516683
786.0,0.07893782368695544
787.0,1.0687343949780166
788.0,1.7211035080404584
789.0,1.4159697270148506
790.0,1.0040863754105216
791.0,1.0690484886649068
792.0,3.0119953109648514
793.0,1.3023839163781419
794.0,0.7456522800683497
795.0,1.9049094027377431
796.0,3.4267759046540074
797.0,1.8743942945214362
798.0,1.9314698856667463
799.0,1.2127091118315134
800.0,2.044995860641336
801.0,1.2780465573976583
802.0,2.1419500856625033
803.0,2.5487822497658588
804.0,2.497519952475572
805.0,2.0942190172919433
806.0,1.2026991369448332
807.0,2.678328382051578
808.0,1.6422531331879142
809.0,2.9956400229520765
810.0,3.0558696249003425
811.0,2.793033236196411
812.0,2.6596099414008547
813.0,2.476686792177755
814.0,3.1310272163231545
815.0,2.2258910449215596
816.0,2.0179914166209563
817.0,3.2797232859468237
818.0,2.58146714314725
819.0,2.7133663721602503
820.0,2.486957008856742
821.0,1.7282812545380302
822.0,3.3937875192171396
823.0,2.322546558027121
824.0,3.7013127019451915
825.0,3.6495133822177577
826.0,5.306811844157343
827.0,3.9388111261473298
828.0,3.0119037999478384
829.0,3.9390884383029547
830.0,3.6412365408921774
831.0,3.1819525719845987
832.0,2.871780280012615
833.0,3.6428262255112154
834.0,3.9287414833801897
835.0,3.588480839009136
836.0,2.716479779592798
837.0,3.5945613233927483
838.0,5.524027768035168
839.0,1.958882006561312
840.0,3.5560420673751025
841.0,6.0901602837610405
842.0,5.259541491648298
843.0,3.517684609008572
844.0,3.8984842136885605
845.0,4.7869541536903775
846.0,4.301797919434478
847.0,3.7938516644631264
848.0,3.4360047379367433
849.0,5.84193631965146
850.0,4.43957254257712
851.0,3.6447127805633817
852.0,4.27961866421665
853.0,4.736631228861134
854.0,4.8007420134913135
855.0,4.326009873733355
856.0,2.524112798982603
857.0,3.725385854553509
858.0,5.412096746806226
859.0,3.6693122716763757
860.0,3.5691360748806464
861.0,2.599680146969923
862.0,2.5456074195154534
863.0,4.2717371486093985
864.0,2.8207600674257245
865.0,2.708429455173505
866.0,3.4838446294355836
867.0,3.89750041419697
868.0,3.4833911762881944
869.0,3.37715448743404
870.0,3.499355031912422
871.0,3.3865774843233973
872.0,2.943985170857464
873.0,2.1098860074825643
874.0,2.950464570711376
875.0,5.592056332288602
876.0,3.398203012836062
877.0,2.118502879510224
878.0,1.7474304150607705
879.0,0.8414373542208815
880.0,0.888893667253937
881.0,2.416481119388915
882.0,2.376639433786938
883.0,2.577550488624662
884.0,3.7704950825166472
885.0,1.6807682727776578
886.0,0.030884432312795328
887.0,0.8962920341730243
888.0,0.8546089020013586
889.0,2.4082599039334114
890.0,0.39262177440577256
891.0,1.822116648805762
892.0,0.2248011535070099
893.0,0.5916744492860413
894.0,0.26019537617187566
895.0,0.16941348107042364
896.0,1.1811560074010619
897.0,1.9575167926158035
898.0,1.2941205683902604
899.0,1.612523194756117
900.0,2.411714077610367
901.0,1.0591528909401848
902.0,1.9628539427936178
903.0,1.3247663234661153
904.0,1.708231015448492
905.0,2.0110946879389346
906.0,0.9699886983990721
907.0,0.2629705377067325
908.0,1.1667402956183384
909.0,1.5719456718461462
910.0,1.525018256961021
911.0,1.065269043567903
912.0,0.5957791557301153
913.0,2.5041876267496606
914.0,1.5724316987208868
915.0,1.2702483589558398
916.0,2.2472999400805036
917.0,2.413746682080993
918.0,1.6213212594250233
919.0,0.8790861815561944
920.0,0.7175079922280572
921.0,1.26877328909473
922.0,1.0532476558524142
923.0,1.3762562741644588
924.0,1.967884313618218
925.0,2.3763191696196233
926.0,2.575709406364535
927.0,2.2367045908073315
928.0,1.18135893969299
929.0,1.3703337508003488
930.0,0.45322443001603396
931.0,1.2912218350063636
932.0,2.489196883394864
933.0,2.5791101729300276
934.0,2.1221123207323034
935.0,1.9022003623862618
936.0,1.276502227187057
937.0,0.5057195457044705
938.0,1.6082976733231702
939.0,1.994829664246019
940.0,1.6217289579603396
941.0,1.37113623959084
942.0,1.7383571635409063
943.0,2.3015440308689588
944.0,2.0498076340528164
945.0,1.8060172619042123
946.0,1.6555662405179008
947.0,0.48171576211619105
948.0,0.22683275798218683
949.0,1.6084029475941493
950.0,2.336336498866586
951.0,2.946498285402242
952.0,1.7422281516191012
953.0,0.5431575828974601
954.0,1.6314101485801173
955.0,2.2538823463756996
956.0,0.9062348499672196
957.0,0.7799707484885532
958.0,0.7822085255129554
959.0,1.2064593894693691
960.0,0.27720563239082446
961.0,0.890047500787758
962.0,1.8902483137717823
963.0,0.4520326817016453
964.0,0.6761467176906657
965.0,0.46089430016041505
966.0,0.5354349955388354
967.0,0.1733484171704856
968.0,2.499107915673357
969.0,2.3392778340904603
970.0,2.4377361116949183
971.0,1.8528064879932609
972.0,0.6213433504934149
973.0,2.1506296774980376
974.0,1.8443309795575882
975.0,0.6033300397680831
976.0,0.5540930905562027
977.0,1.2959266778577392
978.0,1.3465436454346886
979.0,0.08470424322464164
980.0,0.6409353100015468
981.0,1.267764461754231
982.0,1.2305616048472499
983.0,0.8732050279733639
984.0,1.1161652266151956
985.0,1.7517845566238588
986.0,2.110571856290464
987.0,2.223578340576358
988.0,2.728385865245548
989.0,3.1607374147119836
990.0,3.3936568461135916
991.0,4.866129377546336
992.0,5.8838534106207865
993.0,5.988249474066085
994.0,6.136886847499446
995.0,6.773456237241642
996.0,7.973287290567372
997.0,8.364424216209407
998.0,8.516759015785286
999.0,8.707000031445668
1000.0,7.471815492340987
1001.0,11.170630474987457
1002.0,11.963740804445727
1003.0,8.85900579799044
1004.0,13.44061535793406
1005.0,14.10712238242636
1006.0,14.663572365751852
1007.0,15.114699416696055
1008.0,14.212878527192874
1009.0,13.912327856302205
1010.0,13.84223500727575
1011.0,12.40007258955479
1012.0,13.461803664361591
1013.0,12.790197819583065
1014.0,12.662181237362748
1015.0,11.69412937756725
1016.0,8.745704222848449
1017.0,8.801227570277323
1018.0,9.07285437759845
1019.0,7.002992817750523
1020.0,5.706110809420941
1021.0,6.478332809271975
1022.0,6.584661495540024
1023.0,5.104102541490068
1024.0,5.061642549877766
1025.0,3.324493428013102
1026.0,3.1880445318712267
1027.0,1.422911884096135
1028.0,3.54359950624266
1029.0,4.092263744509748
1030.0,2.110004520903685
1031.0,0.9093865398495982
1032.0,0.6693709129764978
1033.0,0.7035473245780783
1034.0,1.98964462818165
1035.0,2.0261566011650975
1036.0,0.4924303410648586
1037.0,1.9769652167832603
1038.0,0.9021191359050139
1039.0,2.3844767299675382
1040.0,1.938927797658006
1041.0,0.8453000715517145
1042.0,1.394677377506618
1043.0,2.050214855411012
1044.0,2.2478801291696517
1045.0,2.95297490117533
1046.0,3.008392329101222
1047.0,2.442182700990444
1048.0,4.319852578235632
1049.0,6.349322787942604
1050.0,6.07734112410004
1051.0,5.212316442863417
1052.0,6.673518385434158
1053.0,7.878408272355382
1054.0,8.090664244407892
1055.0,10.965602020987248
1056.0,13.850221668414083
1057.0,14.918653721019286
1058.0,15.794158774105318
1059.0,16.271546957027393
1060.0,18.600249876262335
1061.0,19.991502037262713
1062.0,23.005436259898012
1063.0,23.280270181548193
1064.0,24.241269848613918
1065.0,24.83923890071852
1066.0,26.688299867463808
1067.0,26.02694543576584
1068.0,25.48456773211148
1069.0,25.883242983197835
1070.0,25.60729402311497
1071.0,23.84434366564688
1072.0,20.937613657945207
1073.0,21.616342373346505
1074.0,20.239909114891823
1075.0,20.072353579712075
1076.0,15.73700421001669
1077.0,17.157497492111535
1078.0,16.48924838536757
1079.0,14.746116486574664
1080.0,12.801141511364907
1081.0,11.499432526972077
1082.0,11.333154328723445
1083.0,11.681329944017824
1084.0,11.103829990485849
1085.0,8.813775293019622
1086.0,7.413213901909197
1087.0,6.656192539543394
1088.0,5.137853336755844
1089.0,6.317759021667227
1090.0,5.620113869698107
1091.0,5.004342579277316
1092.0,4.440856534431515
1093.0,5.236343832120191
1094.0,6.146771426676934
1095.0,5.393831392487233
1096.0,3.507738712150064
1097.0,3.05781214708085
1098.0,3.703467498193691
1099.0,2.7312559221791934
1100.0,3.0653902627214427
1101.0,2.7165529274106945
1102.0,0.03436420012278121
1103.0,2.956253871030815
1104.0,1.401772700365257
1105.0,0.5802482375109771
1106.0,1.125165502096735
1107.0,1.7114923485295819
1108.0,2.0178328616798953
1109.0,1.9885495083633054
1110.0,1.1036692732970481
1111.0,1.1999226948437323
1112.0,2.0496483879842695
1113.0,0.36062679990928703
1114.0,0.8390151148530123
1115.0,2.613095664246536
1116.0,1.1559904079783287
1117.0,1.3519216385881958
1118.0,2.082898084537968
1119.0,0.08649286065284238
1120.0,0.5725389173043786
1121.0,1.7833536842452236
1122.0,1.6800263546442302
1123.0,0.2887639493312089
1124.0,0.7578080710400094
1125.0,1.4652100917672926
1126.0,1.2387379565615535
1127.0,1.185702885597717
1128.0,0.7289385613788838
1129.0,1.3264980628363126
1130.0,3.0428414001101975
1131.0,2.0410432357990853
1132.0,2.037797565542969
1133.0,2.2606008214665665
1134.0,1.9808464084833446
1135.0,2.6108896100075487
1136.0,1.8898421459576213
1137.0,1.5665468564696616
1138.0,1.402712934316383
1139.0,0.5190790988550515
1140.0,1.2205342601296658
1141.0,2.9272742055777212
1142.0,1.6050209099373118
1143.0,1.8034704733507094
1144.0,2.8505496259378025
1145.0,1.8598238932807591
1146.0,1.794088500387777
1147.0,0.25813936380028935
1148.0,0.44175113495539997
1149.0,2.7739902482198473
1150.0,2.1341552601703895
1151.0,1.9959310003715798
1152.0,0.7551106670286651
1153.0,0.911099364080509
1154.0,2.6023679938426203
1155.0,1.1867782074426092
1156.0,0.6871667398553896
1157.0,1.550642442945651
1158.0,1.9050878736245704
1159.0,1.1153899697850915
1160.0,0.6582031512412136
1161.0,0.6035508583277184
1162.0,1.6238244613639516
1163.0,0.3538746555805193
1164.0,0.21764100908447545
1165.0,1.760455892920575
1166.0,0.46054029111555916
1167.0,0.46216188844811107
1168.0,1.40194631356668
1169.0,1.3003252764482778
1170.0,0.1976627336277207
1171.0,2.4850698502829207
1172.0,1.816250277663906
1173.0,1.7682459774283796
1174.0,0.819232487543153
1175.0,0.5863303882134121
1176.0,0.4813205528918676
1177.0,0.36292433193191365
1178.0,1.2592510686651062
1179.0,0.6765493105853047
1180.0,1.8744345615226505
1181.0,3.581697145951622
1182.0,0.9455986699242488
1183.0,3.0153047562867012
1184.0,2.4996613371979164
1185.0,1.93383
1186.0,1.6957651755348033
1187.0,2.105982176170352
1188.0,3.4200924691593313
1189.0,2.27854069049495
1190.0,1.1549481620498592
1191.0,2.9077795358449694
1192.0,3.0383901525172767
1193.0,3.388492181642949
1194.0,1.7887683855069594
1195.0,0.5230648367995951
1196.0,2.6892736902717767
1197.0,2.4127890105907204
1198.0,1.8472831619223817
1199.0,2.0121448103222486
1200.0,1.0949324701444532
1201.0,0.9848731439987566
1202.0,3.737801638834199
1203.0,2.8468567449864675
1204.0,4.860880004218066
1205.0,2.6363106931092544
1206.0,3.4733582537350127
1207.0,2.8297326783394987
1208.0,3.2858654232206455
1209.0,5.148444805566834
1210.0,3.517674989531641
1211.0,3.01158420175362
1212.0,4.730321117924428
1213.0,3.6053469310192527
1214.0,3.4493733869784595
1215.0,4.763295349454654
1216.0,4.821368117821758
1217.0,5.307371828577419
1218.0,4.27611172854115
1219.0,4.339484746771597
1220.0,4.842523560033987
1221.0,4.016192526578613
1222.0,4.718037862231591
1223.0,5.445003351823673
1224.0,4.056591229847106
1225.0,4.638292459718053
1226.0,5.2587051808546486
1227.0,4.413988196838314
1228.0,4.473226788528613
1229.0,4.535035004067743
1230.0,3.240677021076689
1231.0,2.5109406846147775
1232.0,4.53778564324898
1233.0,3.6958910102195786
1234.0,2.1944237008336325
1235.0,2.444164191545138
1236.0,3.9704680802687147
1237.0,3.747466539373629
1238.0,2.408878886687779
1239.0,2.8371892621691015
1240.0,3.7021970976807834
1241.0,3.740259901552258
1242.0,3.3939229195836895
1243.0,4.879119012470591
1244.0,3.6949958663734304
1245.0,2.824214452243162
1246.0,3.1158838799443145
1247.0,2.830151090370359
1248.0,3.2873902313399657
1249.0,2.2351700767011997
1250.0,6.552306763759981
1251.0,3.541469209092836
1252.0,1.4896320680281026
1253.0,3.278570699039166
1254.0,3.221127156715734
1255.0,1.9858751520488218
1256.0,2.286646495551086
1257.0,1.6595629671005885
1258.0,1.6960073063079144
1259.0,0.9900057746901204
1260.0,0.8829199056354765
1261.0,2.3380539306519608
1262.0,1.1280098494119024
1263.0,0.8469855826633186
1264.0,1.817942855115917
1265.0,0.6114935361639648
1266.0,0.9412935966692318
1267.0,1.223384740169561
1268.0,1.5929491997562373
1269.0,0.0808784970317315
1270.0,1.6095221527789882
1271.0,2.6881535469241182
1272.0,1.2306519231705981
1273.0,0.1341790822326755
1274.0,0.0
1275.0,0.0
1276.0,0.0
1277.0,0.0
1278.0,0.0
1279.0,0.0
1280.0,0.0
1281.0,0.0
1282.0,0.0
1283.0,0.0
1284.0,0.0
1285.0,0.0
1286.0,0.0
1287.0,0.0
1288.0,0.0
1289.0,0.0
1290.0,0.0
1291.0,0.0
1292.0,0.0
1293.0,0.0
1294.0,0.0
1295.0,0.0
1296.0,0.0
1297.0,0.0
1298.0,0.0
1299.0,0.0
1300.0,0.0
1301.0,0.0
1302.0,0.0
1303.0,0.0
1304.0,0.0
1305.0,0.0
1306.0,0.0
1307.0,0.0
1308.0,0.0
1309.0,0.0
1310.0,0.0
1311.0,0.0
1312.0,0.0
1313.0,0.0
1314.0,0.0
1315.0,0.0
1316.0,0.0
1317.0,0.0
1318.0,0.0
1319.0,0.0
1320.0,0.0
1321.0,0.0
1322.0,0.0
1323.0,0.0
1324.0,0.0
1325.0,0.0
1326.0,0.0
1327.0,0.0
1328.0,0.0
1329.0,0.0
1330.0,0.0
1331.0,0.0
1332.0,0.0
1333.0,0.0
1334.0,0.0
1335.0,0.0
1336.0,0.0
1337.0,0.0
1338.0,0.0
1339.0,0.0
1340.0,0.0
1341.0,0.0
1342.0,0.0
1343.0,0.0
1344.0,0.0
1345.0,0.0
1346.0,0.0
1347.0,0.0
1348.0,0.0
1349.0,0.0
1350.0,0.0
1351.0,0.0
1352.0,0.0
1353.0,0.0
1354.0,0.0
1355.0,0.0
1356.0,0.0
1357.0,0.0
1358.0,0.0
1359.0,0.0
1360.0,0.0
1361.0,0.0
1362.0,0.0
1363.0,0.0
1364.0,0.0
1365.0,0.0
1366.0,0.0
1367.0,0.0
1368.0,0.0
1369.0,0.0
1370.0,0.0
1371.0,0.0
1372.0,0.0
1373.0,0.0
1374.0,0.0
1375.0,0.0
1376.0,0.0
1377.0,0.0
1378.0,0.0
1379.0,0.0
1380.0,0.0
1381.0,0.0
1382.0,0.0
1383.0,0.0
1384.0,0.0
1385.0,0.0
1386.0,0.0
1387.0,0.0
1388.0,0.0
1389.0,0.0
1390.0,0.0
1391.0,0.0
1392.0,0.0
1393.0,0.0
1394.0,0.0
1395.0,0.0
1396.0,0.0
1397.0,0.0
1398.0,0.0
1399.0,0.0
1400.0,0.0
1401.0,0.0
1402.0,0.0
1403.0,0.0
1404.0,0.0
1405.0,0.0
1406.0,0.0
1407.0,0.0
1408.0,0.0
1409.0,0.0
1410.0,0.0
1411.0,0.0
1412.0,0.0
1413.0,0.0
1414.0,0.0
1415.0,0.0
1416.0,0.0
1417.0,0.0
1418.0,0.0
1419.0,0.0
1420.0,0.0
1421.0,0.0
1422.0,0.0
1423.0,0.0
1424.0,0.0
1425.0,0.0
1426.0,0.0
1427.0,0.0
1428.0,0.0
1429.0,0.0
1430.0,0.0
1431.0,0.0
1432.0,0.0
1433.0,0.0
1434.0,0.0
1435.0,0.0
1436.0,0.0
1437.0,0.0
1438.0,0.0
1439.0,0.0
1440.0,0.0
1441.0,0.0
1442.0,0.0
1443.0,0.0
1444.0,0.0
1445.0,0.0
1446.0,0.0
1447.0,0.0
1448.0,0.0
1449.0,0.0
1450.0,0.0
1451.0,0.0
1452.0,0.0
1453.0,0.0
1454.0,0.0
1455.0,0.0
1456.0,0.0
1457.0,0.0
1458.0,0.0
1459.0,0.0
1460.0,0.0
1461.0,0.0
1462.0,0.0
1463.0,0.0
1464.0,0.0
1465.0,0.0
1466.0,0.0
1467.0,0.0
1468.0,0.0
1469.0,0.0
1470.0,0.0
1471.0,0.0
1472.0,0.0
1473.0,0.0
1474.0,0.0
1475.0,0.0
1476.0,0.0
1477.0,0.0
1478.0,0.0
1479.0,0.0
1480.0,0.0
1481.0,0.0
1482.0,0.0
1483.0,0.0
1484.0,0.0
1485.0,0.0
1486.0,0.0
1487.0,0.0
1488.0,0.0
1489.0,0.0
1490.0,0.0
1491.0,0.0
1492.0,0.0
1493.0,0.0
1494.0,0.0
1495.0,0.0
1496.0,0.0
1497.0,0.0
1498.0,0.0
1499.0,0.0
1500.0,0.0
1501.0,0.0
1502.0,0.0
1503.0,0.0
1504.0,0.0
1505.0,0.0
1506.0,0.0
1507.0,0.0
1508.0,0.0
1509.0,0.0
1510.0,0.0
1511.0,0.0
1512.0,0.0
1513.0,0.0
1514.0,0.0
1515.0,0.0
1516.0,0.0
1517.0,0.0
1518.0,0.0
1519.0,0.0
1520.0,0.0
1521.0,0.0
1522.0,0.0
1523.0,0.0
1524.0,0.0
1525.0,0.0
1526.0,0.0
1527.0,0.0
1528.0,0.0
1529.0,0.0
1530.0,0.0
1531.0,0.0
1532.0,0.0
1533.0,0.0
1534.0,0.0
1535.0,0.0
1536.0,0.0
1537.0,0.0
1538.0,0.0
1539.0,0.0
1540.0,0.0
1541.0,0.0
1542.0,0.0
1543.0,0.0
1544.0,0.0
1545.0,0.0
1546.0,0.0
1547.0,0.0
1548.0,0.0
1549.0,0.0
1550.0,0.0
1551.0,0.0
1552.0,0.0
1553.0,0.0
1554.0,0.0
1555.0,0.0
1556.0,0.0
1557.0,0.0
1558.0,0.0
1559.0,0.0
1560.0,0.0
1561.0,0.0
1562.0,0.0
1563.0,0.0
1564.0,0.0
1565.0,0.0
1566.0,0.0
1567.0,0.0
1568.0,0.0
1569.0,0.0
1570.0,0.0
1571.0,0.0
1572.0,0.0
1573.0,0.0
1574.0,0.0
1575.0,0.0
1576.0,0.0
1577.0,0.0
1578.0,0.0
1579.0,0.0
1580.0,0.0
1581.0,0.0
1582.0,0.0
1583.0,0.0
1584.0,0.0
1585.0,0.0
1586.0,0.0
1587.0,0.0
1588.0,0.0
1589.0,0.0
1590.0,0.0
1591.0,0.0
1592.0,0.0
1593.0,0.0
1594.0,0.0
1595.0,0.0
1596.0,0.0
1597.0,0.0
1598.0,0.0
1599.0,0.0
