0.0,0.0
1.0,0.0
2.0,0.0
3.0,0.0
4.0,0.0
5.0,0.0
6.0,0.0
7.0,0.0
8.0,0.0
9.0,0.0
10.0,0.0
11.0,0.0
12.0,0.0
13.0,0.0
14.0,0.0
15.0,0.0
16.0,0.0
17.0,0.0
18.0,0.0
19.0,0.0
20.0,0.0
21.0,0.0
22.0,0.0
23.0,0.0
24.0,0.0
25.0,0.0
26.0,0.0
27.0,0.0
28.0,0.0
29.0,0.0
30.0,0.0
31.0,0.0
32.0,0.0
33.0,0.0
34.0,0.0
35.0,0.0
36.0,0.0
37.0,0.0
38.0,0.0
39.0,0.0
40.0,0.0
41.0,0.0
42.0,0.0
43.0,0.0
44.0,0.0
45.0,0.0
46.0,0.0
47.0,0.0
48.0,0.0
49.0,0.0
50.0,0.0
51.0,0.0
52.0,0.0
53.0,0.0
54.0,0.0
55.0,0.0
56.0,0.0
57.0,0.0
58.0,0.0
59.0,0.0
60.0,0.0
61.0,0.0
62.0,0.0
63.0,0.0
64.0,0.0
65.0,0.0
66.0,0.0
67.0,0.0
68.0,0.0
69.0,0.0
70.0,0.0
71.0,0.0
72.0,0.0
73.0,0.0
74.0,0.0
75.0,0.0
76.0,0.0
77.0,0.0
78.0,0.0
79.0,0.0
80.0,0.0
81.0,0.0
82.0,0.0
83.0,0.0
84.0,0.0
85.0,0.0
86.0,0.0
87.0,0.0
88.0,0.0
89.0,0.0
90.0,0.0
91.0,0.0
92.0,0.0
93.0,0.0
94.0,0.0
95.0,0.0
96.0,0.0
97.0,0.0
98.0,0.0
99.0,0.0
100.0,0.0
101.0,0.0
102.0,0.0
103.0,0.0
104.0,0.0
105.0,0.0
106.0,0.0
107.0,0.0
108.0,0.0
109.0,0.0
110.0,0.0
111.0,0.0
112.0,0.0
113.0,0.0
114.0,0.0
115.0,0.0
116.0,0.0
117.0,0.0
118.0,0.0
119.0,0.0
120.0,0.0
121.0,0.0
122.0,0.0
123.0,0.0
124.0,0.0
125.0,0.0
126.0,2.6514816234721095
127.0,1.4992507494334784
128.0,11.3324554806115
129.0,10.967134113399721
130.0,20.06842177603823
131.0,15.851806425866222
132.0,2.1392864528817626
133.0,1.601078684629006
134.0,5.759007159693704
135.0,11.291075235262237
136.0,20.845058283839148
137.0,34.379185901102446
138.0,68.51576530726685
139.0,88.42803110657476
140.0,91.55889469563856
141.0,114.39535122040562
142.0,124.94232313322546
143.0,147.66290774284118
144.0,191.1837415156055
145.0,245.75775198675697
146.0,242.15337000421886
147.0,190.79401338828646
148.0,129.62042431096307
149.0,91.25685540110543
150.0,53.30173019443032
151.0,32.080316192428185
152.0,19.28140860906204
153.0,8.97231371572365
154.0,5.88923875093966
155.0,0.8887180449020214
156.0,7.730078250333819
157.0,23.541451566540918
158.0,24.22228890374046
159.0,14.231507607944751
160.0,19.213091697546425
161.0,33.03999494644824
162.0,33.495275995088875
163.0,21.722153305179532
164.0,17.19537205896935
165.0,22.449607564335164
166.0,29.741103416999277
167.0,14.606679831771737
168.0,26.222699042881995
169.0,34.29493800456917
170.0,25.6333024105589
171.0,38.5375668675854
172.0,42.88612301943854
173.0,26.29081800157188
174.0,14.219686144809817
175.0,49.88275444218672
176.0,43.931422316076976
177.0,38.393085448571775
178.0,42.36891061084125
179.0,46.00990562383049
180.0,65.04252377016533
181.0,71.86241059303912
182.0,70.87396098376553
183.0,74.58823850288064
184.0,86.73906397780698
185.0,78.7867230720035
186.0,50.086877342480534
187.0,28.545679136322953
188.0,58.414466153227174
189.0,57.23723799317985
190.0,61.80555232246577
191.0,66.05572838434749
192.0,43.9907750784655
193.0,54.204967062155916
194.0,60.50739516811998
195.0,56.65483427503872
196.0,48.03022823093802
197.0,37.374312490367906
198.0,30.572110952929584
199.0,30.963348835891473
200.0,32.36002563464565
201.0,19.9778682767307
202.0,37.09589545257006
203.0,43.55744118407315
204.0,34.47744229688041
205.0,27.70751205669736
206.0,29.99383944736938
207.0,22.731526801095136
208.0,12.386374472709102
209.0,12.035689593707623
210.0,39.1291092029343
211.0,32.739788986843436
212.0,31.892809579747883
213.0,40.228583730311954
214.0,13.87270937696981
215.0,16.548127345100127
216.0,26.08857714851024
217.0,33.96667065461156
218.0,35.49826167769894
219.0,5.439155321782652
220.0,1.5195591526338588
221.0,16.604092545934858
222.0,27.273480629651765
223.0,11.212031480797602
224.0,14.649314590103081
225.0,25.40034197956859
226.0,28.529361867643594
227.0,13.931319067137347
228.0,9.10304558568668
229.0,8.134152456804909
230.0,11.039982547844033
231.0,15.680862188985282
232.0,3.397998964953418
233.0,25.080800955324065
234.0,39.54041026340441
235.0,32.00054584409354
236.0,21.017853944315828
237.0,11.637422792401205
238.0,14.37266116222717
239.0,20.030952438591445
240.0,19.79762634774013
241.0,37.090014787843444
242.0,36.30906163608065
243.0,34.440272600189566
244.0,38.103029796053725
245.0,33.26412913057762
246.0,30.944878730479495
247.0,40.60000364902486
248.0,52.320721825628745
249.0,53.63622617981725
250.0,58.393097878248895
251.0,62.940247186189126
252.0,76.20128418486877
253.0,96.2935723812372
254.0,106.49380838917533
255.0,99.19615798589848
256.0,66.92121468373924
257.0,28.123269862854148
258.0,5.623424225836751
259.0,4.325963578199912
260.0,2.6685458558882638
261.0,3.3595324839413467
262.0,7.892933296945427
263.0,3.2665648026549565
264.0,2.3532017558065133
265.0,10.066408824590061
266.0,16.863909935206227
267.0,11.117833348792775
268.0,6.56872813505452
269.0,3.401387698703603
270.0,3.1581878244555295
271.0,9.235607818875485
272.0,24.95139721465056
273.0,1.6284824984389623
274.0,18.706156025357497
275.0,12.36775048279927
276.0,5.2427961900459445
277.0,10.29314398601703
278.0,12.585243240232254
279.0,27.208139989207098
280.0,41.87893697474834
281.0,27.567026501044584
282.0,38.37557104421113
283.0,54.707127043461576
284.0,53.34193893351085
285.0,33.80505882516901
286.0,50.15263496289982
287.0,66.83648446287602
288.0,79.92960358587614
289.0,89.96173740186383
290.0,93.11769153350001
291.0,68.49871078861595
292.0,79.47924584557805
293.0,98.91627414687109
294.0,100.36172399524997
295.0,124.00614461373678
296.0,154.87265040585675
297.0,179.68907818286743
298.0,178.2545505440251
299.0,141.7502541255069
300.0,122.85885136160674
301.0,101.31784796622573
302.0,94.48142408063576
303.0,99.60428297032954
304.0,84.82918548800865
305.0,110.93417344315714
306.0,122.49035093796277
307.0,115.99921185470258
308.0,113.5286852432808
309.0,134.71579090888466
310.0,159.13881335345437
311.0,184.7080605354693
312.0,211.13063434082034
313.0,238.95388394255588
314.0,284.2026898338536
315.0,326.82213252712586
316.0,367.20878390381654
317.0,425.6482610208652
318.0,539.2176222499312
319.0,660.7736961747906
320.0,821.708354983904
321.0,981.553849288417
322.0,1058.6115455369622
323.0,948.0268950960235
324.0,688.7611540558537
325.0,456.58351262782764
326.0,297.57401247796054
327.0,149.00456872297607
328.0,104.6622526754266
329.0,63.310439945320404
330.0,33.53110939204319
331.0,28.153950673231765
332.0,25.224052266168986
333.0,17.964685629005803
334.0,17.472215649665912
335.0,9.624881217716297
336.0,8.689064210805968
337.0,13.076660896499416
338.0,9.727014500365938
339.0,3.279166261919556
340.0,7.662276710348982
341.0,14.945196685960683
342.0,10.634096311686156
343.0,23.8336953957131
344.0,6.998924063211683
345.0,21.64128626161575
346.0,13.841308502238999
347.0,20.099763757849875
348.0,13.999977945466583
349.0,3.5690652546376596
350.0,11.480542424325774
351.0,10.647195383031011
352.0,5.180199212007167
353.0,5.6021513846570965
354.0,11.86477410177872
355.0,8.993691798158238
356.0,10.859387669553103
357.0,21.675711686990596
358.0,20.511879004773053
359.0,14.75397374776616
360.0,23.500206216182715
361.0,21.617948684323572
362.0,30.085385459472946
363.0,20.721037513303592
364.0,0.3643277051519249
365.0,12.778894507242867
366.0,7.841211204942605
367.0,5.11440724303222
368.0,11.992854769354505
369.0,22.032478154824016
370.0,9.388016344375457
371.0,21.956098871566656
372.0,19.224329741978373
373.0,16.284866300702486
374.0,33.38204198109167
375.0,50.88644736098237
376.0,53.13521262355011
377.0,66.22433681193907
378.0,90.06865589232491
379.0,115.34072301322021
380.0,161.84599449099386
381.0,209.15476867963034
382.0,217.8725167553102
383.0,206.03558822502328
384.0,215.772559788276
385.0,197.90814465621503
386.0,226.33032494070224
387.0,278.9030448838303
388.0,348.818322439328
389.0,449.01694115741066
390.0,515.8682437098923
391.0,629.2850455395026
392.0,774.3769753148314
393.0,946.4152161468553
394.0,1162.5444721435924
395.0,1303.1006471964915
396.0,1315.528404777622
397.0,1193.4504364839727
398.0,964.7019028138088
399.0,701.0434584443043
400.0,515.5508555240422
401.0,365.40471190666904
402.0,262.6430137999953
403.0,202.78570741128166
404.0,142.14282197973625
405.0,120.42648693261701
406.0,107.13190486873877
407.0,88.65489821825518
408.0,64.9438723194265
409.0,50.82793263954514
410.0,67.73078960754081
411.0,56.7860082081458
412.0,38.84746081927709
413.0,49.653739077701665
414.0,71.09555241286961
415.0,62.633264825937175
416.0,51.321557996697
417.0,54.61594904810863
418.0,72.5852258593408
419.0,90.23101535936294
420.0,124.41088038874933
421.0,133.96228526283505
422.0,125.34993633126948
423.0,117.26549378680346
424.0,106.3805678611152
425.0,82.18087260364932
426.0,69.02407423753223
427.0,60.454532224407686
428.0,44.48811368065977
429.0,29.269745266039656
430.0,32.20497141652487
431.0,32.00343088891788
432.0,22.91866822208425
433.0,12.968574378047217
434.0,25.485453611370357
435.0,53.67230664946133
436.0,57.60518938779346
437.0,52.8715579998671
438.0,69.85212026838309
439.0,94.74630910684186
440.0,132.47535118584784
441.0,156.18026790946368
442.0,185.00755927484565
443.0,233.30601543813623
444.0,271.0780118220152
445.0,299.9456378141041
446.0,304.719090839276
447.0,311.4537486039432
448.0,343.79645257290395
449.0,394.3105319425731
450.0,409.05806351891505
451.0,366.72780713646137
452.0,299.7646023612421
453.0,237.03163730332864
454.0,163.09378486494654
455.0,134.98838401043594
456.0,115.18981648341303
457.0,95.90056000316989
458.0,79.1732350575636
459.0,59.28055796979173
460.0,49.637850757752105
461.0,41.35693184867394
462.0,27.97799747828221
463.0,16.52948537290951
464.0,22.168655662299
465.0,11.438844209571593
466.0,1.6665687708465569
467.0,2.8893187484470375
468.0,10.75876972026526
469.0,12.47202187964217
470.0,1.08507621874993
471.0,10.83209574762577
472.0,17.82236491971573
473.0,13.316235360192428
474.0,11.696081786621829
475.0,4.370666233782241
476.0,7.841066535702555
477.0,20.289210685636313
478.0,14.19305606011032
479.0,3.701461884108982
480.0,12.649111995214575
481.0,7.710226785648397
482.0,5.795350326673653
483.0,3.656714575297523
484.0,1.0010140006579729
485.0,16.9883651910036
486.0,2.308159356482502
487.0,3.1098226073136885
488.0,14.502624958901702
489.0,40.506469692517044
490.0,28.056460943221175
491.0,24.63687911152589
492.0,5.959987935767255
493.0,14.452134727851993
494.0,8.82362529114115
495.0,3.87401755156574
496.0,4.026074415745936
497.0,2.898640869455181
498.0,9.597409079837742
499.0,23.19913840862486
500.0,3.116659219658827
501.0,28.320735129652554
502.0,40.70897794364414
503.0,32.38991831245929
504.0,26.12402429048053
505.0,40.73194225306933
506.0,34.873614123057635
507.0,33.45344787897782
508.0,44.966523188720345
509.0,57.80421085572655
510.0,61.75692118000782
511.0,64.9028325450599
512.0,65.58537823888312
513.0,81.02278658983039
514.0,106.3373220170225
515.0,123.25511747798464
516.0,120.65633791967171
517.0,138.16373739141255
518.0,164.17333208947
519.0,198.7919976295463
520.0,227.6749629921401
521.0,239.59440264718918
522.0,276.26035632421195
523.0,321.63610787169256
524.0,378.5998331008556
525.0,432.5654281998957
526.0,475.05104938953707
527.0,518.4929349775192
528.0,534.2765762670068
529.0,539.3212234227691
530.0,501.9684255865353
531.0,428.26893888805375
532.0,364.67491149909404
533.0,311.0873338370581
534.0,280.7975563644508
535.0,239.8738078369844
536.0,175.8909196600639
537.0,113.00674493459884
538.0,123.39737240665758
539.0,122.04020660063955
540.0,108.92954432870933
541.0,81.81872158139213
542.0,50.03753923026549
543.0,42.988130260025265
544.0,45.75150793144632
545.0,43.99954283972532
546.0,39.24777784435561
547.0,29.758310130039217
548.0,17.991524095767698
549.0,42.95183573169707
550.0,18.293023499311797
551.0,9.145045078609826
552.0,8.67135888562662
553.0,3.115078080402415
554.0,1.5901024053164448
555.0,1.5082980846538645
556.0,8.234302806440695
557.0,18.616582395661027
558.0,20.91389514573491
559.0,7.7457919908004955
560.0,4.71527534918122
561.0,1.5240126352178494
562.0,10.140716564930317
563.0,6.791876674231335
564.0,1.8251665054886088
565.0,18.18237801098319
566.0,16.488677793980504
567.0,10.088535019485697
568.0,13.87272708486576
569.0,17.95829299360889
570.0,3.8820072659065064
571.0,6.000783331898035
572.0,1.399846856036379
573.0,4.159422616738174
574.0,9.96966239839286
575.0,24.920782996797662
576.0,33.321151861645916
577.0,35.289865594744086
578.0,41.67667099894106
579.0,42.689021119153885
580.0,40.55008586124952
581.0,42.457946681964486
582.0,30.62530924763938
583.0,27.985794045607122
584.0,54.05922689041623
585.0,59.69311139832761
586.0,32.89822670139222
587.0,27.777897895536803
588.0,33.649240472076244
589.0,31.889673287965472
590.0,8.891786966212019
591.0,3.308756705614423
592.0,28.657512155960397
593.0,21.175947668523918
594.0,35.213453271709824
595.0,15.73460682578071
596.0,5.4519763747278684
597.0,18.56639346288648
598.0,20.034428659408892
599.0,10.611474124491691
600.0,20.87748902495593
601.0,13.215586816691117
602.0,2.1449852739248243
603.0,8.891481533896002
604.0,8.932944595953245
605.0,5.78180961719572
606.0,3.1723961322937977
607.0,2.617972699816229
608.0,7.960354188562632
609.0,27.303877204279647
610.0,12.236501985354893
611.0,25.14797588500452
612.0,21.639525112956953
613.0,19.62066451949283
614.0,24.80044359224638
615.0,26.99906956101186
616.0,54.96377617178408
617.0,66.53016644872365
618.0,67.18657395895582
619.0,58.19363441172623
620.0,59.86074939126112
621.0,98.73065769208922
622.0,98.0191757777259
623.0,110.02394353723696
624.0,125.04819440216862
625.0,129.84299575661882
626.0,120.03791097207029
627.0,98.17677792397663
628.0,55.69115558726307
629.0,34.53250433738434
630.0,23.701530189300197
631.0,17.256651205435446
632.0,13.706791025428934
633.0,4.404283727007205
634.0,4.818166296998217
635.0,7.026724197559126
636.0,16.12507555694744
637.0,13.521801661031413
638.0,1.9945761364878962
639.0,6.54054989836548
640.0,16.55790863881063
641.0,15.128814470864299
642.0,14.398129736182238
643.0,10.643253167953636
644.0,4.054525085933136
645.0,5.8436079295383
646.0,14.063193410487361
647.0,17.508889662319124
648.0,19.195554976795727
649.0,18.269284413278744
650.0,16.471620557934553
651.0,31.581022678149772
652.0,19.039626436792364
653.0,34.756858627240426
654.0,50.20034654242967
655.0,34.965777879004875
656.0,7.521563960392513
657.0,24.962380965087775
658.0,39.89006725437524
659.0,63.061759477048845
660.0,68.01234423593844
661.0,50.24966144257644
662.0,45.174444229199445
663.0,40.34748804643083
664.0,75.9717122620644
665.0,99.50383533311143
666.0,110.37658696075384
667.0,135.04427830317505
668.0,185.49275719882945
669.0,196.2606947615577
670.0,249.6544662495719
671.0,301.5307375989623
672.0,339.0436184562538
673.0,386.46723118951627
674.0,468.67870448022353
675.0,572.9012520030149
676.0,691.2025061832228
677.0,824.9348309120227
678.0,1003.8655338002378
679.0,1252.5167227381405
680.0,1572.6670300440103
681.0,1933.9971348887757
682.0,2431.877323222897
683.0,2971.177564112472
684.0,3374.411062587374
685.0,3448.146085732846
686.0,3067.1117446437524
687.0,2405.924065973006
688.0,1821.4756680891533
689.0,1367.3047058895052
690.0,1046.4686426270446
691.0,817.3629819592317
692.0,631.0920527552212
693.0,531.245165453977
694.0,416.7606258128708
695.0,376.90879828034406
696.0,344.47496655359566
697.0,292.1601822803065
698.0,253.14231292870744
699.0,196.55241895567593
700.0,175.79520140553078
701.0,175.48662392013068
702.0,162.01799566193768
703.0,139.12589961995383
704.0,121.4186147800491
705.0,88.94090801806702
706.0,117.55224194341902
707.0,87.68101838521319
708.0,74.2450693760275
709.0,70.20564225338205
710.0,32.47939352950311
711.0,2.5730447249886508
712.0,34.41242491182437
713.0,27.76015749068672
714.0,19.22143900195482
715.0,20.547834182639654
716.0,22.71661428487625
717.0,25.9180037442238
718.0,42.40498878952457
719.0,27.792006036925528
720.0,28.035097324239583
721.0,17.09520743451735
722.0,2.9482282717948727
723.0,1.8260963950305906
724.0,14.395782283595985
725.0,16.591002100782898
726.0,17.292326093589207
727.0,15.622992703272013
728.0,25.868496939160615
729.0,36.957115534579216
730.0,8.051308385663777
731.0,11.72441712756833
732.0,17.031766505162846
733.0,4.700739725782377
734.0,2.685775646607784
735.0,11.38197090524758
736.0,3.5603759900446574
737.0,2.1351374071794678
738.0,4.396429345777211
739.0,23.636342333384622
740.0,26.343443586770285
741.0,15.062113668249568
742.0,17.70730938213329
743.0,35.32052080281384
744.0,25.87857191348404
745.0,29.563173844268633
746.0,25.371234736239032
747.0,24.70763785134978
748.0,38.955544383770395
749.0,35.688060299073825
750.0,41.51259686470436
751.0,28.190891948824035
752.0,35.5649532441811
753.0,35.46441807051457
754.0,26.11453340430037
755.0,30.562626386467354
756.0,50.59156799010308
757.0,32.23725176950467
758.0,27.516221506620898
759.0,53.67830349678187
760.0,86.12590052562638
761.0,90.57324127650374
762.0,67.10549233579016
763.0,79.34085967557459
764.0,80.99299682517992
765.0,94.30775996165322
766.0,109.71752248453096
767.0,123.2223206963836
768.0,142.6599942042885
769.0,141.19048752888554
770.0,119.22139235304167
771.0,139.36792726635994
772.0,156.69445744521846
773.0,153.33275290932747
774.0,138.8662554145883
775.0,113.8294591597142
776.0,94.04369156497599
777.0,76.4494176627305
778.0,91.05040814599113
779.0,83.74815227901753
780.0,61.47632542476435
781.0,68.89824782437812
782.0,74.0011618203758
783.0,45.97623710677916
784.0,44.740330220183324
785.0,50.64713761407985
786.0,61.2057871492272
787.0,74.94441649507019
788.0,76.31626500901615
789.0,61.207831725845836
790.0,44.29740298723025
791.0,54.10000715034162
792.0,46.7772970455474
793.0,33.107558232197455
794.0,38.50807126703258
795.0,45.16346069388267
796.0,33.81956405364948
797.0,52.174623094422294
798.0,54.11987542879209
799.0,53.47447159080781
800.0,47.002268524262774
801.0,31.317982548525936
802.0,39.372726233475845
803.0,45.1671202304688
804.0,25.959803000726474
805.0,30.57661134609655
806.0,33.73281806595706
807.0,27.54922781319233
808.0,28.38873679590616
809.0,23.98623139108784
810.0,35.85320290726054
811.0,32.39968480682915
812.0,26.36100399460657
813.0,20.75331954894129
814.0,21.249723900873896
815.0,23.771672512347315
816.0,13.671008049147114
817.0,12.974623981425252
818.0,23.629708703196307
819.0,28.46718553141828
820.0,17.697538788621824
821.0,7.048170179576603
822.0,20.864924840625612
823.0,43.73532134745217
824.0,47.333631511959055
825.0,49.030825216475364
826.0,39.52789253323522
827.0,38.46222779834934
828.0,44.00919378746253
829.0,37.33680933764923
830.0,56.09560607130397
831.0,39.13359634386213
832.0,27.65580808997555
833.0,20.359692906066226
834.0,22.229144896532105
835.0,32.865130477001436
836.0,38.128276998568985
837.0,30.598564752939666
838.0,20.51549661085269
839.0,21.7692409669664
840.0,32.38508923118159
841.0,37.4700515336631
842.0,32.013649521899566
843.0,26.20307925170662
844.0,33.79252113592746
845.0,52.776338504220774
846.0,25.542610573161305
847.0,3.2081333929900375
848.0,13.489151580238003
849.0,22.133399449601388
850.0,1.5849960127029497
851.0,7.907166144435218
852.0,1.070691945306382
853.0,8.34266513897043
854.0,24.527198050987277
855.0,36.12027286537506
856.0,36.579999893254424
857.0,31.888117948452752
858.0,36.422402057669196
859.0,33.74558760777241
860.0,20.614519500810385
861.0,21.23787371404032
862.0,21.161261777104652
863.0,10.460217205183913
864.0,6.288979543038068
865.0,28.085431290748218
866.0,18.420210006799813
867.0,-0.17213630789519574
868.0,17.829866342706374
869.0,28.86567063524684
870.0,11.29116243431568
871.0,6.4884817035485565
872.0,3.7936114107383765
873.0,11.60528161732585
874.0,1.9053732755387867
875.0,0.430507843548776
876.0,15.092683930158255
877.0,24.969911692702297
878.0,20.317118116536694
879.0,20.43269655840452
880.0,30.93580599732165
881.0,13.93533832046257
882.0,8.029046590267418
883.0,8.873027234252548
884.0,10.117484597115377
885.0,4.555048288766356
886.0,20.54893357099109
887.0,15.799055456011882
888.0,24.37353600773095
889.0,23.44222246511386
890.0,32.08244609727902
891.0,17.665440892071032
892.0,22.513711879221173
893.0,38.08313115656821
894.0,16.3012543817436
895.0,27.078564121594006
896.0,44.59773251660312
897.0,33.98965733972153
898.0,20.651177960508306
899.0,30.446616193536293
900.0,44.824828116792524
901.0,40.31589814383311
902.0,30.232469371258418
903.0,37.840469793629275
904.0,26.75166132125084
905.0,40.534795523531464
906.0,53.2188746606882
907.0,50.19892786857569
908.0,56.73118451181383
909.0,80.71386353041046
910.0,57.985684831112955
911.0,72.68714148297809
912.0,52.67952761637958
913.0,67.14390630314693
914.0,107.82142625362697
915.0,138.3922320459142
916.0,137.3521194329589
917.0,121.02320123787494
918.0,155.61846043566302
919.0,152.46731587022552
920.0,127.57606802351035
921.0,109.98885709234624
922.0,108.32011725188728
923.0,100.4722422359505
924.0,88.66800859545229
925.0,99.56236722225731
926.0,69.7663967014713
927.0,58.33290505955332
928.0,32.18988782498244
929.0,34.574070767397
930.0,35.69860925381899
931.0,28.245545329151096
932.0,27.84068077086343
933.0,16.41309451077454
934.0,20.894540133076582
935.0,24.07149309627924
936.0,22.445464885586375
937.0,8.99908246167654
938.0,21.30097418579001
939.0,38.47739938130243
940.0,27.903530792275035
941.0,35.74754336315238
942.0,24.966221819290617
943.0,14.866536424870194
944.0,11.501652045495705
945.0,3.9186395621033863
946.0,12.635485000541365
947.0,22.1940220814771
948.0,15.49359763958191
949.0,23.87473942703673
950.0,5.851868765543543
951.0,16.002034717060415
952.0,14.550299991922728
953.0,3.6502264234012816
954.0,9.47335481942761
955.0,4.757828716108953
956.0,0.9086538294240498
957.0,2.064377698896222
958.0,1.9380035479533764
959.0,14.849654761623237
960.0,1.8262900969576348
961.0,10.346525282948049
962.0,13.936063836913743
963.0,10.599410159476077
964.0,7.796197762592734
965.0,12.689225613006794
966.0,7.538328729717982
967.0,8.5662915151467
968.0,12.079970007582848
969.0,7.794117359235791
970.0,1.3195587451858422
971.0,7.1241672037362855
972.0,1.4817561577535672
973.0,17.67060796212344
974.0,14.416702977417916
975.0,0.5686602846337968
976.0,2.276772252604698
977.0,12.18170278204359
978.0,22.120872161963753
979.0,4.444594163400446
980.0,4.032027209834751
981.0,24.30075889862772
982.0,34.8799287755382
983.0,23.688471529951375
984.0,31.994160352484236
985.0,18.271448338893943
986.0,28.654612178169216
987.0,31.18516304061098
988.0,22.462403403942613
989.0,32.20002345337597
990.0,50.146894298672805
991.0,53.09240920344111
992.0,57.70078973238459
993.0,48.32682108023123
994.0,59.0410666494013
995.0,59.676674467532784
996.0,72.98546131862504
997.0,110.54363361055815
998.0,136.43479270139088
999.0,156.7570206163229
1000.0,208.35504461583608
1001.0,231.06618245987352
1002.0,268.00019763903515
1003.0,299.789349390237
1004.0,326.9087631925247
1005.0,365.0566202520776
1006.0,415.2166936182753
1007.0,476.1637802810105
1008.0,596.9931323564566
1009.0,716.0096983235001
1010.0,796.7863629001486
1011.0,872.400651251565
1012.0,903.9219245113094
1013.0,897.3778777138123
1014.0,840.0880963520094
1015.0,732.1541578814539
1016.0,650.7129202244508
1017.0,530.8988291771694
1018.0,455.9045690388476
1019.0,386.06838854112607
1020.0,317.670190636007
1021.0,260.19727178631393
1022.0,215.16914073755407
1023.0,173.16386002230075
1024.0,144.33367653144757
1025.0,154.20643047277184
1026.0,134.41364942437463
1027.0,116.6772757230825
1028.0,106.77323614843738
1029.0,91.28201710280072
1030.0,94.58053054111792
1031.0,84.3365573337912
1032.0,56.71217498393927
1033.0,65.27378724357524
1034.0,93.03789121419652
1035.0,84.56626252355427
1036.0,86.26429629359895
1037.0,84.53550181299633
1038.0,94.37352689560828
1039.0,74.71263370477901
1040.0,68.07444409403755
1041.0,96.16396120832906
1042.0,104.40846497310002
1043.0,88.12096280560108
1044.0,125.08622019087761
1045.0,116.54822570104703
1046.0,123.91064061901072
1047.0,159.25885219716224
1048.0,211.96758462914843
1049.0,234.5946738570373
1050.0,231.18301321540483
1051.0,259.1626106395229
1052.0,336.2417411615862
1053.0,419.35897974127744
1054.0,461.06364854185614
1055.0,523.8323750998599
1056.0,594.2702171396332
1057.0,690.5212502795741
1058.0,802.7545263878629
1059.0,922.7208765824133
1060.0,1074.5255334700935
1061.0,1270.8084198136462
1062.0,1466.0081380561446
1063.0,1703.7778478122298
1064.0,1919.0963756654248
1065.0,2196.136270926145
1066.0,2434.0596336648673
1067.0,2612.111037108214
1068.0,2695.0559565219987
1069.0,2650.783770704667
1070.0,2519.079073577041
1071.0,2339.3581467230074
1072.0,2100.6148550142375
1073.0,1786.2387447985939
1074.0,1557.5552754131313
1075.0,1349.7763839680488
1076.0,1141.4437655911245
1077.0,989.9782622993611
1078.0,859.8845400808409
1079.0,720.5401872395789
1080.0,641.711335578154
1081.0,588.0122221766982
1082.0,520.1448960239421
1083.0,470.60426271033714
1084.0,448.2407435333367
1085.0,397.1971390395959
1086.0,358.33355493795307
1087.0,324.1204286289297
1088.0,285.4482496563071
1089.0,261.79447307751155
1090.0,234.09764787446952
1091.0,184.2443807759422
1092.0,171.7397855516658
1093.0,152.3936057212514
1094.0,138.63910529090882
1095.0,131.4465745426848
1096.0,124.91684393659585
1097.0,105.00669871463444
1098.0,86.53212401461985
1099.0,90.79397191757522
1100.0,72.28391322902775
1101.0,57.90905794307254
1102.0,49.62601159673291
1103.0,33.44148728983344
1104.0,39.71917073818275
1105.0,47.99766130465668
1106.0,53.515416209013644
1107.0,44.923034296778916
1108.0,27.57260936759983
1109.0,23.937950948131906
1110.0,25.759741014085748
1111.0,7.048775832283442
1112.0,25.21265168692306
1113.0,9.116740137876665
1114.0,5.483530550484313
1115.0,8.977237871923627
1116.0,1.5185973668777775
1117.0,10.268915142543472
1118.0,7.711367710272104
1119.0,1.5113016361433527
1120.0,3.9858666477598645
1121.0,9.621636834364368
1122.0,0.06456007231314785
1123.0,10.146229312427828
1124.0,2.9000212007277373
1125.0,19.4905740911165
1126.0,28.050262697054198
1127.0,22.34147935695263
1128.0,13.804196138049392
1129.0,3.2897088960864918
1130.0,2.479827319289131
1131.0,3.7285850928412434
1132.0,4.098997242158904
1133.0,12.154862532147847
1134.0,13.455271689439835
1135.0,2.182657309392867
1136.0,6.347734640855693
1137.0,32.147464560154
1138.0,21.282767038569293
1139.0,5.111663694138528
1140.0,10.799580635765148
1141.0,21.806912973648704
1142.0,-2.757642902521772
1143.0,36.519317795824044
1144.0,6.090234770848327
1145.0,7.570599980999248
1146.0,21.243954321677986
1147.0,4.49637932885514
1148.0,2.517425346545882
1149.0,15.106860866839975
1150.0,21.775986483064727
1151.0,5.170096105078086
1152.0,21.96509777252526
1153.0,1.6908656605153853
1154.0,9.065382514674033
1155.0,19.174666425782238
1156.0,14.454612268068225
1157.0,16.969720340616483
1158.0,19.306296944648075
1159.0,1.3227733574801035
1160.0,10.995378995954043
1161.0,4.629587224075725
1162.0,22.698615208676117
1163.0,28.26305044553126
1164.0,11.833546622181917
1165.0,16.769722848019562
1166.0,9.79736662556725
1167.0,6.111071987237761
1168.0,12.468103516315294
1169.0,10.422532074596473
1170.0,18.838656707957067
1171.0,12.914797276031468
1172.0,1.726101687030321
1173.0,9.50806543815771
1174.0,20.636604302563704
1175.0,28.424074942523283
1176.0,21.90013210748202
1177.0,-1.146381177703804
1178.0,15.180744647404751
1179.0,21.304978616391793
1180.0,27.892354652621467
1181.0,33.57401883475953
1182.0,38.37315133511656
1183.0,41.596214759670026
1184.0,32.941059285057854
1185.0,13.15176740095339
1186.0,9.13590860042776
1187.0,32.41808443523592
1188.0,26.242528073954347
1189.0,50.402880793735065
1190.0,20.610010070087604
1191.0,38.79693417013497
1192.0,48.647218596079455
1193.0,30.126600395196178
1194.0,37.476228122366614
1195.0,50.15005594222995
1196.0,25.493659772234462
1197.0,18.93532661009026
1198.0,49.554810828666874
1199.0,43.8444378673901
1200.0,32.79768903163957
1201.0,59.726253895421564
1202.0,46.543741339419945
1203.0,44.688989294570284
1204.0,33.73856076890901
1205.0,20.50600058485652
1206.0,23.34908395504182
1207.0,27.32737151578777
1208.0,24.037302253397293
1209.0,34.0846489264405
1210.0,43.99503708674808
1211.0,43.91683498085419
1212.0,24.56772482428145
1213.0,31.85143048970437
1214.0,27.593650727365333
1215.0,23.892808732720194
1216.0,18.708601225800823
1217.0,23.543381647999777
1218.0,21.89539385933639
1219.0,21.23422076013613
1220.0,32.7989708132946
1221.0,27.29293190704401
1222.0,17.130873534420232
1223.0,29.20723455511538
1224.0,32.03336223722778
1225.0,35.992968375192525
1226.0,31.668677622372655
1227.0,34.993060816293294
1228.0,41.059743649666636
1229.0,52.521627400877506
1230.0,57.066166157628494
1231.0,47.62896733855071
1232.0,46.43451778741599
1233.0,66.58952982786114
1234.0,69.73855928232302
1235.0,33.930766539513385
1236.0,38.73008309031978
1237.0,48.214257693919905
1238.0,75.42790352066632
1239.0,74.10380931199549
1240.0,86.80103198218951
1241.0,79.40768564348451
1242.0,94.56181145720073
1243.0,99.57519969982869
1244.0,93.97775615297184
1245.0,113.34099518579805
1246.0,120.27381167627358
1247.0,82.02719159911076
1248.0,92.34729197878455
1249.0,73.06703564925095
1250.0,49.09279048660049
1251.0,35.03540455711489
1252.0,40.66727714232223
1253.0,25.569426919671933
1254.0,31.637470166346418
1255.0,40.3156937663874
1256.0,41.29795859432456
1257.0,31.50922292500993
1258.0,25.096306146479865
1259.0,19.23717091270262
1260.0,1.2540150225796607
1261.0,9.9818582056824
1262.0,21.75727672177451
1263.0,2.5213887179920467
1264.0,15.72931738834982
1265.0,14.647333170961613
1266.0,32.700898479740154
1267.0,11.190950114033948
1268.0,4.807439230091982
1269.0,20.722169464508706
1270.0,25.783243406653636
1271.0,9.3624575530543
1272.0,0.6331709130358322
1273.0,0.0
1274.0,0.0
1275.0,0.0
1276.0,0.0
1277.0,0.0
1278.0,0.0
1279.0,0.0
1280.0,0.0
1281.0,0.0
1282.0,0.0
1283.0,0.0
1284.0,0.0
1285.0,0.0
1286.0,0.0
1287.0,0.0
1288.0,0.0
1289.0,0.0
1290.0,0.0
1291.0,0.0
1292.0,0.0
1293.0,0.0
1294.0,0.0
1295.0,0.0
1296.0,0.0
1297.0,0.0
1298.0,0.0
1299.0,0.0
1300.0,0.0
1301.0,0.0
1302.0,0.0
1303.0,0.0
1304.0,0.0
1305.0,0.0
1306.0,0.0
1307.0,0.0
1308.0,0.0
1309.0,0.0
1310.0,0.0
1311.0,0.0
1312.0,0.0
1313.0,0.0
1314.0,0.0
1315.0,0.0
1316.0,0.0
1317.0,0.0
1318.0,0.0
1319.0,0.0
1320.0,0.0
1321.0,0.0
1322.0,0.0
1323.0,0.0
1324.0,0.0
1325.0,0.0
1326.0,0.0
1327.0,0.0
1328.0,0.0
1329.0,0.0
1330.0,0.0
1331.0,0.0
1332.0,0.0
1333.0,0.0
1334.0,0.0
1335.0,0.0
1336.0,0.0
1337.0,0.0
1338.0,0.0
1339.0,0.0
1340.0,0.0
1341.0,0.0
1342.0,0.0
1343.0,0.0
1344.0,0.0
1345.0,0.0
1346.0,0.0
1347.0,0.0
1348.0,0.0
1349.0,0.0
1350.0,0.0
1351.0,0.0
1352.0,0.0
1353.0,0.0
1354.0,0.0
1355.0,0.0
1356.0,0.0
1357.0,0.0
1358.0,0.0
1359.0,0.0
1360.0,0.0
1361.0,0.0
1362.0,0.0
1363.0,0.0
1364.0,0.0
1365.0,0.0
1366.0,0.0
1367.0,0.0
1368.0,0.0
1369.0,0.0
1370.0,0.0
1371.0,0.0
1372.0,0.0
1373.0,0.0
1374.0,0.0
1375.0,0.0
1376.0,0.0
1377.0,0.0
1378.0,0.0
1379.0,0.0
1380.0,0.0
1381.0,0.0
1382.0,0.0
1383.0,0.0
1384.0,0.0
1385.0,0.0
1386.0,0.0
1387.0,0.0
1388.0,0.0
1389.0,0.0
1390.0,0.0
1391.0,0.0
1392.0,0.0
1393.0,0.0
1394.0,0.0
1395.0,0.0
1396.0,0.0
1397.0,0.0
1398.0,0.0
1399.0,0.0
1400.0,0.0
1401.0,0.0
1402.0,0.0
1403.0,0.0
1404.0,0.0
1405.0,0.0
1406.0,0.0
1407.0,0.0
1408.0,0.0
1409.0,0.0
1410.0,0.0
1411.0,0.0
1412.0,0.0
1413.0,0.0
1414.0,0.0
1415.0,0.0
1416.0,0.0
1417.0,0.0
1418.0,0.0
1419.0,0.0
1420.0,0.0
1421.0,0.0
1422.0,0.0
1423.0,0.0
1424.0,0.0
1425.0,0.0
1426.0,0.0
1427.0,0.0
1428.0,0.0
1429.0,0.0
1430.0,0.0
1431.0,0.0
1432.0,0.0
1433.0,0.0
1434.0,0.0
1435.0,0.0
1436.0,0.0
1437.0,0.0
1438.0,0.0
1439.0,0.0
1440.0,0.0
1441.0,0.0
1442.0,0.0
1443.0,0.0
1444.0,0.0
1445.0,0.0
1446.0,0.0
1447.0,0.0
1448.0,0.0
1449.0,0.0
1450.0,0.0
1451.0,0.0
1452.0,0.0
1453.0,0.0
1454.0,0.0
1455.0,0.0
1456.0,0.0
1457.0,0.0
1458.0,0.0
1459.0,0.0
1460.0,0.0
1461.0,0.0
1462.0,0.0
1463.0,0.0
1464.0,0.0
1465.0,0.0
1466.0,0.0
1467.0,0.0
1468.0,0.0
1469.0,0.0
1470.0,0.0
1471.0,0.0
1472.0,0.0
1473.0,0.0
1474.0,0.0
1475.0,0.0
1476.0,0.0
1477.0,0.0
1478.0,0.0
1479.0,0.0
1480.0,0.0
1481.0,0.0
1482.0,0.0
1483.0,0.0
1484.0,0.0
1485.0,0.0
1486.0,0.0
1487.0,0.0
1488.0,0.0
1489.0,0.0
1490.0,0.0
1491.0,0.0
1492.0,0.0
1493.0,0.0
1494.0,0.0
1495.0,0.0
1496.0,0.0
1497.0,0.0
1498.0,0.0
1499.0,0.0
1500.0,0.0
1501.0,0.0
1502.0,0.0
1503.0,0.0
1504.0,0.0
1505.0,0.0
1506.0,0.0
1507.0,0.0
1508.0,0.0
1509.0,0.0
1510.0,0.0
1511.0,0.0
1512.0,0.0
1513.0,0.0
1514.0,0.0
1515.0,0.0
1516.0,0.0
1517.0,0.0
1518.0,0.0
1519.0,0.0
1520.0,0.0
1521.0,0.0
1522.0,0.0
1523.0,0.0
1524.0,0.0
1525.0,0.0
1526.0,0.0
1527.0,0.0
1528.0,0.0
1529.0,0.0
1530.0,0.0
1531.0,0.0
1532.0,0.0
1533.0,0.0
1534.0,0.0
1535.0,0.0
1536.0,0.0
1537.0,0.0
1538.0,0.0
1539.0,0.0
1540.0,0.0
1541.0,0.0
1542.0,0.0
1543.0,0.0
1544.0,0.0
1545.0,0.0
1546.0,0.0
1547.0,0.0
1548.0,0.0
1549.0,0.0
1550.0,0.0
1551.0,0.0
1552.0,0.0
1553.0,0.0
1554.0,0.0
1555.0,0.0
1556.0,0.0
1557.0,0.0
1558.0,0.0
1559.0,0.0
1560.0,0.0
1561.0,0.0
1562.0,0.0
1563.0,0.0
1564.0,0.0
1565.0,0.0
1566.0,0.0
1567.0,0.0
1568.0,0.0
1569.0,0.0
1570.0,0.0
1571.0,0.0
1572.0,0.0
1573.0,0.0
1574.0,0.0
1575.0,0.0
1576.0,0.0
1577.0,0.0
1578.0,0.0
1579.0,0.0
1580.0,0.0
1581.0,0.0
1582.0,0.0
1583.0,0.0
1584.0,0.0
1585.0,0.0
1586.0,0.0
1587.0,0.0
1588.0,0.0
1589.0,0.0
1590.0,0.0
1591.0,0.0
1592.0,0.0
1593.0,0.0
1594.0,0.0
1595.0,0.0
1596.0,0.0
1597.0,0.0
1598.0,0.0
1599.0,0.0
