0.0,0.0
1.0,0.0
2.0,0.0
3.0,0.0
4.0,0.0
5.0,0.0
6.0,0.0
7.0,0.0
8.0,0.0
9.0,0.0
10.0,0.0
11.0,0.0
12.0,0.0
13.0,0.0
14.0,0.0
15.0,0.0
16.0,0.0
17.0,0.0
18.0,0.0
19.0,0.0
20.0,0.0
21.0,0.0
22.0,0.0
23.0,0.0
24.0,0.0
25.0,0.0
26.0,0.0
27.0,0.0
28.0,0.0
29.0,0.0
30.0,0.0
31.0,0.0
32.0,0.0
33.0,0.0
34.0,0.0
35.0,0.0
36.0,0.0
37.0,0.0
38.0,0.0
39.0,0.0
40.0,0.0
41.0,0.0
42.0,0.0
43.0,0.0
44.0,0.0
45.0,0.0
46.0,0.0
47.0,0.0
48.0,0.0
49.0,0.0
50.0,0.0
51.0,0.0
52.0,0.0
53.0,0.0
54.0,0.0
55.0,0.0
56.0,0.0
57.0,0.0
58.0,0.0
59.0,0.0
60.0,0.0
61.0,0.0
62.0,0.0
63.0,0.0
64.0,0.0
65.0,0.0
66.0,0.0
67.0,0.0
68.0,0.0
69.0,0.0
70.0,0.0
71.0,0.0
72.0,0.0
73.0,0.0
74.0,0.0
75.0,0.0
76.0,0.0
77.0,0.0
78.0,0.0
79.0,0.0
80.0,0.0
81.0,0.0
82.0,0.0
83.0,0.0
84.0,0.0
85.0,0.0
86.0,0.0
87.0,0.0
88.0,0.0
89.0,0.0
90.0,0.0
91.0,0.0
92.0,0.0
93.0,0.0
94.0,0.0
95.0,0.0
96.0,0.0
97.0,0.0
98.0,0.0
99.0,0.0
100.0,0.0
101.0,0.0
102.0,0.0
103.0,-39.37951688174699
104.0,112.97544384772834
105.0,45.12846603487032
106.0,8.085844386169908
107.0,108.3838892051563
108.0,62.3979453340525
109.0,8.295835909472338
110.0,105.1913295393818
111.0,117.87220791283588
112.0,91.65952133988156
113.0,112.03019050123874
114.0,198.2530574907934
115.0,338.85359896048374
116.0,422.3938423752534
117.0,444.53001168096574
118.0,529.8095560926015
119.0,403.1415342564422
120.0,297.47341325986736
121.0,540.4629818818219
122.0,592.7481092648916
123.0,555.120382324249
124.0,631.0027021823465
125.0,735.526981821762
126.0,874.326691466205
127.0,980.5514102017991
128.0,1003.0177952658294
129.0,1077.9073187200677
130.0,1438.8375194426278
131.0,1871.4198789379175
132.0,1999.8145601768138
133.0,2479.239552128514
134.0,3046.7632157111707
135.0,3436.1101303280266
136.0,4274.080229069742
137.0,4978.0135458738705
138.0,5367.558131706987
139.0,5780.550055890441
140.0,5947.239424107731
141.0,5817.0230366577425
142.0,5417.423683792123
143.0,4737.980223286882
144.0,4091.6492717159645
145.0,3491.0718836428928
146.0,2836.203105785916
147.0,2371.7008084845215
148.0,1984.8646672893815
149.0,1602.6135685664142
150.0,1327.0381155063003
151.0,1054.781532264785
152.0,860.1159764403347
153.0,798.6568767216459
154.0,686.4143423262963
155.0,549.7099640407197
156.0,438.7565400886889
157.0,361.2160674656695
158.0,346.77804858229445
159.0,381.4951838818143
160.0,376.71477132572
161.0,251.34540666813973
162.0,225.42059542987224
163.0,295.58127753805815
164.0,276.6686588523097
165.0,133.33105083654894
166.0,114.06430423711633
167.0,212.94646445513806
168.0,166.1233634909732
169.0,153.82988137605219
170.0,146.92860086331595
171.0,110.29450280696581
172.0,221.33752285476965
173.0,285.35576130137196
174.0,214.80900620106254
175.0,177.9124676987605
176.0,379.1344665895236
177.0,357.4265754447629
178.0,106.60533152396623
179.0,273.36147519649717
180.0,348.5022832433371
181.0,249.8637927931481
182.0,214.66382309047134
183.0,193.91272551595804
184.0,257.4873628142164
185.0,373.5011869172719
186.0,398.45171916065345
187.0,319.28357216708724
188.0,286.5125353968198
189.0,304.39995018837004
190.0,204.27529872598174
191.0,320.342715812007
192.0,494.0008918130768
193.0,433.39852699991144
194.0,442.337506366394
195.0,371.83403102943356
196.0,230.79528628454239
197.0,266.88171753924814
198.0,328.22952328498
199.0,383.63421699294025
200.0,386.10945309217334
201.0,217.45310919370652
202.0,222.15808749197421
203.0,287.86988228986326
204.0,173.3172238388419
205.0,249.7912940312492
206.0,376.4832282340261
207.0,361.3722024655142
208.0,247.88172760323425
209.0,162.54021055093614
210.0,169.30167381241066
211.0,210.66385795237645
212.0,163.7799286359239
213.0,127.2580604369466
214.0,125.20162678047424
215.0,94.38507987322288
216.0,41.91269322806507
217.0,108.15628935957493
218.0,184.44411175389973
219.0,42.24007809138411
220.0,21.898324409854553
221.0,49.46241954890294
222.0,33.184417423205765
223.0,180.31492959471586
224.0,218.925389953275
225.0,149.1640325062335
226.0,146.8250117313701
227.0,116.67396899140249
228.0,86.67911938712473
229.0,74.24025077587494
230.0,62.891146213726515
231.0,132.68334332845757
232.0,163.12463749346023
233.0,101.66182392406716
234.0,106.49389888496786
235.0,129.9063589601287
236.0,130.47521213190132
237.0,91.16751286992485
238.0,3.8477547471376177
239.0,130.34309686422694
240.0,314.57617222287826
241.0,208.9292896092298
242.0,207.928176724182
243.0,181.71117506408746
244.0,75.48517528838106
245.0,187.1593947185898
246.0,252.98970027018763
247.0,207.90174913257286
248.0,189.97659385291172
249.0,263.75895495941927
250.0,293.7868225932104
251.0,234.08248696744116
252.0,197.40082266439842
253.0,297.2009286915184
254.0,247.37964601260907
255.0,70.1932264765697
256.0,126.91044515404708
257.0,142.77691233206477
258.0,99.26430965799176
259.0,95.71407777359033
260.0,87.73904175381416
261.0,95.56712465111167
262.0,88.76470963993886
263.0,47.70904740672689
264.0,57.825275973650776
265.0,78.10045719210743
266.0,92.77211520522744
267.0,134.06275985248968
268.0,167.55256748374725
269.0,183.544444900335
270.0,203.3427597090671
271.0,237.23635226909101
272.0,214.2044838538085
273.0,224.1384936433146
274.0,280.71344153663495
275.0,196.6591547583178
276.0,246.67580357095935
277.0,379.2630714764142
278.0,341.35417817220394
279.0,262.78357828083716
280.0,343.4525678370237
281.0,429.95594373176374
282.0,285.0782984597432
283.0,362.4159108199724
284.0,428.38970329557634
285.0,260.77566701583265
286.0,179.3833186161337
287.0,441.358933833989
288.0,606.1825268823735
289.0,420.6456147949473
290.0,486.88640982218277
291.0,675.9243301648323
292.0,653.0293570337274
293.0,434.8414551607574
294.0,537.9062181301545
295.0,509.47646216375716
296.0,320.45463303100973
297.0,420.67828461527625
298.0,408.01813663608607
299.0,318.1800979766309
300.0,309.4275616998104
301.0,314.1198596547681
302.0,208.75420765799254
303.0,98.63953548246897
304.0,153.15579992456645
305.0,349.92596887709567
306.0,397.9811261523941
307.0,273.1800214008371
308.0,227.73442000566547
309.0,445.57647983775354
310.0,524.2482885572705
311.0,480.75188223072547
312.0,639.1642722446292
313.0,731.3821575847352
314.0,762.6661845935804
315.0,943.8818998767995
316.0,1325.9174636962944
317.0,1425.3655434195425
318.0,1537.773091961634
319.0,1881.0778159309464
320.0,2039.557879649225
321.0,2032.6007563200897
322.0,1965.0925742043046
323.0,1866.9746224461107
324.0,1653.9402206841569
325.0,1172.8020099796302
326.0,807.0550502896273
327.0,818.3910197461829
328.0,524.7729855732996
329.0,217.00712652999658
330.0,194.3935241870229
331.0,298.03658449413234
332.0,218.53408617253257
333.0,124.33820284019836
334.0,110.97835319799718
335.0,56.89533039362886
336.0,135.20233684019462
337.0,191.5300505357312
338.0,108.17146538515253
339.0,55.41760386581525
340.0,72.34494387978445
341.0,89.66827748702357
342.0,56.762560728223605
343.0,23.98851302468963
344.0,29.635906258569825
345.0,39.420164006752074
346.0,29.990917784473428
347.0,61.75312765835251
348.0,51.94674729774629
349.0,36.512059975445915
350.0,90.60949373796267
351.0,77.85875535396923
352.0,30.501752057717212
353.0,15.109306244633478
354.0,32.70090309031642
355.0,38.4762947929212
356.0,34.80100677174488
357.0,28.301459884359975
358.0,20.31079851655169
359.0,57.17058350083168
360.0,55.38617815441369
361.0,30.965045308996046
362.0,125.47433433400553
363.0,109.17750899952425
364.0,52.82466027332929
365.0,127.27386653211123
366.0,231.10247962660733
367.0,108.50732355274754
368.0,25.6704084423579
369.0,193.04639845850542
370.0,155.8161310481883
371.0,176.24484143787717
372.0,203.56417559507864
373.0,28.65107649768694
374.0,17.681004043734276
375.0,265.0017469240794
376.0,452.05391600953345
377.0,360.51991096456595
378.0,499.3683812036297
379.0,569.7738434744399
380.0,496.8418430800449
381.0,630.4295056166677
382.0,780.9308033987953
383.0,878.2050699238422
384.0,957.2114745175819
385.0,1072.6674064604563
386.0,1316.7488363058405
387.0,1684.5630221173712
388.0,2009.6893722518257
389.0,2182.101103866559
390.0,2687.667834361692
391.0,3350.4221529639467
392.0,3857.1116940146358
393.0,4369.614833905091
394.0,4971.1847088081195
395.0,5349.255350044612
396.0,5383.765487532411
397.0,5420.177023615465
398.0,4869.113209721861
399.0,4142.306870266807
400.0,3773.715163884514
401.0,3078.746802757486
402.0,2392.3400017480776
403.0,2052.3239573347196
404.0,1938.9165378419939
405.0,1671.2634709850538
406.0,1289.942830051707
407.0,1052.6128175433078
408.0,1023.7189006502484
409.0,860.432156211124
410.0,898.5915572085767
411.0,1014.1656427386052
412.0,768.2250413653234
413.0,592.4200635352379
414.0,780.4175688276233
415.0,1048.4689916403001
416.0,975.5174372160658
417.0,951.1863328028614
418.0,1036.7848560557425
419.0,1087.7752739175853
420.0,1037.4542708639021
421.0,1014.6083112677882
422.0,1022.5213662377423
423.0,989.2036559493147
424.0,899.8894648080804
425.0,877.8154822219407
426.0,836.2690949172247
427.0,770.125459032361
428.0,798.6041430094596
429.0,667.9430083592772
430.0,420.37479875265524
431.0,291.6300182610592
432.0,424.79326958712704
433.0,684.732682101167
434.0,752.3383918503764
435.0,621.6000040548321
436.0,660.4347699355886
437.0,673.2101451270363
438.0,613.5118687667012
439.0,648.5462341055444
440.0,859.6295946865781
441.0,845.2308331877775
442.0,764.4322360555993
443.0,894.3917683972288
444.0,1035.7114219045716
445.0,1029.1839113648323
446.0,963.8408805459492
447.0,989.1299064878726
448.0,1038.6888180608598
449.0,803.2450027196504
450.0,605.7597463571508
451.0,682.1903222775925
452.0,557.1120200154734
453.0,627.7304420488083
454.0,583.742338098363
455.0,208.19993703191693
456.0,318.1082640718043
457.0,449.6746149504089
458.0,312.97633402802677
459.0,127.59016863267506
460.0,163.70158840987207
461.0,221.57273151374557
462.0,251.6306084531678
463.0,344.6753224031985
464.0,411.54411761099675
465.0,198.00478542683243
466.0,82.70943207511891
467.0,338.159148210716
468.0,290.99381847103086
469.0,55.76721595276511
470.0,41.04452832891988
471.0,254.0845807951984
472.0,151.8702294564614
473.0,141.3316467200229
474.0,215.91412290466988
475.0,107.73224994872231
476.0,38.89985517384782
477.0,-7.56717173349504
478.0,55.08701942225772
479.0,196.95408323733682
480.0,70.99536782651113
481.0,90.9636083106864
482.0,160.19318102434002
483.0,8.404884700426688
484.0,-1.4610780975531221
485.0,9.007757326530822
486.0,27.115046364887647
487.0,114.55424211711498
488.0,132.0550004990305
489.0,154.73719303599583
490.0,195.45280684921286
491.0,177.27590895917191
492.0,82.95451283684791
493.0,66.13191226374323
494.0,110.74572605202087
495.0,103.9299654296313
496.0,63.98912700594755
497.0,84.66765399600138
498.0,142.8216679096077
499.0,155.99789992486058
500.0,117.83340504133199
501.0,80.01205870229067
502.0,189.9125717009272
503.0,316.00065789264977
504.0,57.406900335664105
505.0,109.21037715954358
506.0,354.06895823432694
507.0,319.32380321170655
508.0,195.249150489253
509.0,236.89777273431923
510.0,267.83246376075533
511.0,205.35257523231508
512.0,358.78447371777327
513.0,386.43728997657377
514.0,343.7223370852368
515.0,378.6637792324956
516.0,356.01743717063374
517.0,474.5063506318592
518.0,650.801888939905
519.0,679.3297224024418
520.0,593.4325554989374
521.0,723.8320124184415
522.0,826.9324322025465
523.0,776.9584464037845
524.0,885.3475886878299
525.0,884.3512700277569
526.0,812.3600975685911
527.0,865.4900891503656
528.0,1011.7098550205213
529.0,900.9820370583018
530.0,884.6323972038696
531.0,945.1132866099363
532.0,571.4758363334316
533.0,289.8620012552762
534.0,421.11123880780787
535.0,541.6450222836462
536.0,211.6588230413214
537.0,317.6268121972643
538.0,398.1804676608143
539.0,231.8249336156818
540.0,235.3304897966928
541.0,171.1250999301443
542.0,116.12275757092705
543.0,106.76856248264451
544.0,68.45167186267685
545.0,81.1351926480878
546.0,65.9452922647404
547.0,35.41891699212747
548.0,51.51414928448587
549.0,33.42746868405094
550.0,52.596369850915416
551.0,77.76234988240853
552.0,45.242227234532365
553.0,47.13611607926113
554.0,96.34053490935489
555.0,108.66615660506699
556.0,53.96641113252713
557.0,56.056214143592264
558.0,149.5626241303578
559.0,166.87283336952473
560.0,47.82600458218773
561.0,34.446851313230965
562.0,212.01975275924372
563.0,224.34612744866305
564.0,21.09783741075145
565.0,84.33141087257698
566.0,236.12710666460103
567.0,229.9479658985282
568.0,178.63684236839146
569.0,346.8433372286804
570.0,377.8554129767425
571.0,258.39631493500394
572.0,171.83056321047184
573.0,253.53651283677078
574.0,511.85339074480333
575.0,536.7061911881831
576.0,417.3005674350685
577.0,499.8862925825625
578.0,366.6178893284607
579.0,182.19163397007603
580.0,341.16844536754223
581.0,672.1415845524291
582.0,341.4999295344859
583.0,393.30915877943005
584.0,633.7438434372585
585.0,358.94472147974767
586.0,253.3664340969526
587.0,341.2968703577888
588.0,392.1748886480583
589.0,361.509408240936
590.0,398.64710466805946
591.0,274.42503553598084
592.0,203.04077861904594
593.0,246.83123127012573
594.0,101.27960803331848
595.0,124.68921721819657
596.0,232.65995329180384
597.0,192.68637578172866
598.0,69.80875138509964
599.0,185.44248540540636
600.0,195.780946855978
601.0,82.77583508213739
602.0,130.11914228594605
603.0,45.58924488195031
604.0,166.07963091385594
605.0,341.3281829171306
606.0,239.00150749039827
607.0,253.12133955970398
608.0,246.44621658618715
609.0,192.19113353869344
610.0,188.8020289494948
611.0,193.8651064566819
612.0,186.35159381605604
613.0,203.0861591301839
614.0,258.23197181080997
615.0,307.26214542065225
616.0,347.3371626685327
617.0,376.476261010819
618.0,413.8628581051874
619.0,500.58061577105616
620.0,610.1327992517912
621.0,431.2383094580062
622.0,390.4401885467637
623.0,854.093897542522
624.0,639.146806115115
625.0,730.7241300359092
626.0,789.2419966245218
627.0,255.6708242750714
628.0,714.3379433055468
629.0,824.2316639340138
630.0,395.8650817890246
631.0,423.8324764662999
632.0,1060.705989263083
633.0,902.4627251904899
634.0,593.7655236422544
635.0,749.7623331754335
636.0,634.1760282813799
637.0,565.250234118743
638.0,564.335155048591
639.0,546.9044487977945
640.0,516.6691098643984
641.0,417.4043598827318
642.0,453.3818853612444
643.0,477.46985313485237
644.0,303.7600352750772
645.0,313.9815028771139
646.0,491.94801528696536
647.0,614.9836875164973
648.0,518.1605068317195
649.0,297.6858496839101
650.0,329.17213305515924
651.0,231.54501892364544
652.0,93.598286274882
653.0,500.4364858079846
654.0,404.17468948816213
655.0,293.7413870073012
656.0,412.48749278673995
657.0,301.3132682626379
658.0,301.05180164471244
659.0,446.717060994673
660.0,421.5723427247734
661.0,205.9127631699851
662.0,346.7211033379683
663.0,392.3744996551192
664.0,428.1897323829572
665.0,517.8949447618761
666.0,328.47098945082337
667.0,646.8315672282605
668.0,823.1709753863339
669.0,688.32361512157
670.0,991.7417109899013
671.0,1081.214651541522
672.0,1022.8159120761954
673.0,1294.2625684348197
674.0,1936.2409542184973
675.0,2283.302749480114
676.0,2615.559009412162
677.0,3352.342098156487
678.0,4455.958618101398
679.0,5625.79807406847
680.0,7329.255260273782
681.0,9145.194187198398
682.0,10941.235919992603
683.0,13118.802626621944
684.0,14668.275648507448
685.0,14684.903570298113
686.0,13581.245700131489
687.0,12120.587695720631
688.0,9882.018648653173
689.0,8061.08932535168
690.0,6710.635223982668
691.0,5323.808165651965
692.0,4219.745726762503
693.0,2901.8558541887023
694.0,2517.205079392379
695.0,2825.940042038203
696.0,2021.6570482367636
697.0,1772.4712188290705
698.0,1672.0979278343423
699.0,1319.6888044156744
700.0,1183.6177276189314
701.0,1228.029351552429
702.0,1177.8645979364533
703.0,843.5729765586988
704.0,522.4164965669416
705.0,780.7684749950582
706.0,1058.0074987352737
707.0,1004.912830348093
708.0,715.9920839794659
709.0,562.1182179761668
710.0,882.774825309544
711.0,848.3904382881566
712.0,568.6245358482801
713.0,641.0076683174353
714.0,466.21996053060275
715.0,583.5868136796894
716.0,573.4312452031563
717.0,208.63568519906272
718.0,362.594637323909
719.0,486.88795225893796
720.0,457.3782170445618
721.0,452.8107257384266
722.0,465.701863720184
723.0,315.7312497732822
724.0,302.3624935422269
725.0,356.1434105315424
726.0,285.48675580146863
727.0,355.40680876842356
728.0,461.3818190487207
729.0,356.1053948687057
730.0,245.82123766610852
731.0,489.00530600882814
732.0,356.81570687016614
733.0,125.13699927337439
734.0,72.13860825950766
735.0,53.45289887464682
736.0,79.32677817245434
737.0,283.5248333327924
738.0,273.9706494047346
739.0,64.73261159038499
740.0,303.79277420034026
741.0,168.90479785147562
742.0,141.25324482813969
743.0,374.0275599630313
744.0,278.5819713556316
745.0,253.51913126441434
746.0,372.8920275192902
747.0,298.6964476785797
748.0,32.4250290617247
749.0,120.15464675310577
750.0,50.40660032677163
751.0,144.5612252426473
752.0,353.2436420055721
753.0,71.90529101660171
754.0,59.84994150319142
755.0,235.7312606435209
756.0,280.8513048652032
757.0,269.45115691525825
758.0,467.76989143886897
759.0,289.81677245720573
760.0,171.0044931029279
761.0,357.7016616152472
762.0,304.6207754313092
763.0,456.7370799665804
764.0,512.4900785319878
765.0,289.58841502498944
766.0,240.04925899372137
767.0,743.7418013908118
768.0,599.9703951601201
769.0,298.65660399013746
770.0,576.7729014019072
771.0,689.4644368915644
772.0,199.67251754746684
773.0,470.57232163636684
774.0,855.5453636661667
775.0,98.85648587416107
776.0,244.90074946735865
777.0,441.9531183694627
778.0,292.56246929976885
779.0,230.296683922731
780.0,374.36773001956186
781.0,421.1992350770956
782.0,286.1644759310441
783.0,112.4034795770459
784.0,72.12691547083004
785.0,195.37611081991332
786.0,391.84819872276626
787.0,357.67781882263967
788.0,151.0645630702698
789.0,205.17101632505972
790.0,154.4456548686507
791.0,79.64702864988371
792.0,196.2791042323579
793.0,356.45451338923993
794.0,158.51946971881108
795.0,80.37456422775044
796.0,226.01747682156002
797.0,361.7111600579099
798.0,375.3514338665152
799.0,237.95611022439817
800.0,229.27351416697894
801.0,272.2051081072305
802.0,134.10060964364607
803.0,113.81286181112424
804.0,358.17960745626874
805.0,469.74044718974517
806.0,328.6053436751832
807.0,324.00748043177407
808.0,245.47125351605277
809.0,136.38400816915606
810.0,77.56338060596998
811.0,86.68919572455523
812.0,180.1390633289083
813.0,146.05095711309343
814.0,118.5728130903174
815.0,159.63168737081892
816.0,122.24570763884431
817.0,192.94328705658788
818.0,178.0071071076781
819.0,109.22094362196118
820.0,164.74476978689134
821.0,235.0240935187222
822.0,193.69145057845367
823.0,190.08790467929424
824.0,230.96744732663205
825.0,170.38083573469726
826.0,166.6745810574228
827.0,105.458680630381
828.0,72.6365146333617
829.0,115.84611293076259
830.0,43.135678044165374
831.0,62.89569552719389
832.0,61.24910473154232
833.0,30.153709488538183
834.0,117.63864709106653
835.0,207.2263367666984
836.0,180.65296259588888
837.0,141.7431337347425
838.0,211.67177699884698
839.0,284.8072117708091
840.0,163.93426908124104
841.0,316.1345561516606
842.0,425.8653867582119
843.0,98.34739845738346
844.0,88.57765587876143
845.0,318.9463433667963
846.0,220.0841262180358
847.0,65.80166851108099
848.0,377.4540163944786
849.0,173.58231039642862
850.0,259.472804603803
851.0,505.1398122747506
852.0,347.0530403526102
853.0,176.74630700839253
854.0,202.07449231115154
855.0,220.0008019512075
856.0,286.353595305563
857.0,551.0729151356338
858.0,625.6343989253714
859.0,213.39365632763335
860.0,105.58123679352585
861.0,441.45697231713535
862.0,321.39262365573654
863.0,10.05438967236747
864.0,304.33676070504964
865.0,624.2975799278917
866.0,319.3725713360197
867.0,146.81795167178728
868.0,319.6595984856188
869.0,408.02647480913254
870.0,254.51433295339694
871.0,154.78143856911555
872.0,270.16131432058455
873.0,390.7049006068215
874.0,417.4770591486203
875.0,429.7703937142478
876.0,488.92231239332034
877.0,484.10254008868776
878.0,467.8903832652625
879.0,467.2004817419586
880.0,426.5100958209879
881.0,328.72255663036606
882.0,312.62642975300594
883.0,330.1890579496477
884.0,260.706050053404
885.0,178.87729983252228
886.0,299.61402557271737
887.0,242.0645211389828
888.0,417.63636426297955
889.0,605.500250630018
890.0,181.26295512709962
891.0,274.03545438610314
892.0,606.2062200287244
893.0,546.5206602583428
894.0,252.00071886999166
895.0,327.1151264505255
896.0,234.22151076706888
897.0,92.63046795546272
898.0,306.4929313692699
899.0,596.5559691597681
900.0,247.78751590962514
901.0,385.2336765686971
902.0,417.25388249560905
903.0,248.02865736628357
904.0,482.9583490712831
905.0,322.61735121940075
906.0,304.9195845255726
907.0,420.4250388199371
908.0,427.8064990691804
909.0,466.80205497645386
910.0,544.7045193957688
911.0,534.3408777033958
912.0,599.3913007045325
913.0,716.8302553311851
914.0,621.9377559798002
915.0,892.9941698092975
916.0,998.1982226424947
917.0,552.5005318632586
918.0,187.69193087939928
919.0,682.421175953391
920.0,892.1271372810212
921.0,658.7103528440938
922.0,603.121295674718
923.0,827.0882036446768
924.0,633.4057387829241
925.0,662.7277799015482
926.0,675.0510602424473
927.0,515.3977570256042
928.0,547.8886031330608
929.0,370.5485427659769
930.0,341.7738636279128
931.0,517.918582393032
932.0,585.7959267668826
933.0,401.9855502868417
934.0,236.8710150923506
935.0,517.7273498744958
936.0,585.9305789240075
937.0,310.3108239310235
938.0,749.4395580459828
939.0,609.1572036873999
940.0,341.70957847927264
941.0,351.95361144041067
942.0,394.92056565595993
943.0,485.7955751082803
944.0,281.0112125531486
945.0,143.92406115991045
946.0,441.72447915017693
947.0,788.5689522006684
948.0,490.76634058472763
949.0,367.43237259431413
950.0,284.4510873057019
951.0,208.20766776799783
952.0,485.25186008231765
953.0,438.62506038479916
954.0,60.52760945890061
955.0,173.3967958060851
956.0,570.7268524270806
957.0,303.35673333888474
958.0,321.5743451417478
959.0,231.81328194252745
960.0,166.93391390187426
961.0,306.0706788243651
962.0,228.01570266200676
963.0,229.39614222607938
964.0,247.8600768174746
965.0,239.76588200362386
966.0,256.13266169187074
967.0,276.3056229528445
968.0,290.49995241872693
969.0,257.2170388437679
970.0,220.52719218993175
971.0,202.0263747116251
972.0,165.65280133882257
973.0,311.3791868177009
974.0,311.0142605561454
975.0,290.713861496171
976.0,504.96933452800477
977.0,499.56384050683533
978.0,241.70392807169344
979.0,370.53464698929935
980.0,633.1208137341188
981.0,427.7746269907246
982.0,419.8777386403252
983.0,1014.587803955426
984.0,782.8225554496793
985.0,301.73876284372443
986.0,1022.5269999999999
987.0,1180.0216457879767
988.0,741.367812776249
989.0,644.1270669655813
990.0,874.3846869750755
991.0,789.7845748811178
992.0,773.9941646885103
993.0,766.6278066619553
994.0,785.449312399498
995.0,996.1573089877375
996.0,1282.3964754623753
997.0,1210.246833376107
998.0,1480.2856547291997
999.0,1342.7754050615124
1000.0,1132.6064124665209
1001.0,1783.775506941193
1002.0,1395.6637971431733
1003.0,1567.8561460437782
1004.0,1964.5147809332134
1005.0,1858.3916420370604
1006.0,1966.8212356492359
1007.0,2383.074824113753
1008.0,2260.6979178515517
1009.0,2200.0242302348947
1010.0,2519.3957530517037
1011.0,2584.655395210503
1012.0,2799.5738184901893
1013.0,2725.1841488922973
1014.0,2607.886635894885
1015.0,2449.311562460798
1016.0,1955.0613463310974
1017.0,2053.2143084552026
1018.0,2136.4574654393964
1019.0,1718.7177155802397
1020.0,1364.746426578274
1021.0,1617.1446276585878
1022.0,1511.468197370775
1023.0,1215.2803901590771
1024.0,1282.655368482841
1025.0,1390.884481516476
1026.0,1005.3970145962859
1027.0,1033.0721699319754
1028.0,1066.3192388772877
1029.0,1056.911512966395
1030.0,1171.0785220565308
1031.0,1292.7911391255911
1032.0,1317.7030291095257
1033.0,882.020143384783
1034.0,858.7464567424414
1035.0,1181.214644550108
1036.0,818.5247980451145
1037.0,664.2931263386856
1038.0,921.880269476369
1039.0,947.5688806494319
1040.0,942.8071716993385
1041.0,1412.9327382326612
1042.0,1211.4796321837775
1043.0,783.3280673339349
1044.0,1033.4414057033855
1045.0,1363.094089591434
1046.0,924.2339601214583
1047.0,1002.6900631056772
1048.0,1118.4072722342821
1049.0,1322.5526555946658
1050.0,1461.542342376008
1051.0,1294.890519224107
1052.0,1561.7254411986935
1053.0,1747.9774083933305
1054.0,1749.898158573828
1055.0,1708.0015647673854
1056.0,1863.6982161720236
1057.0,2454.658795732225
1058.0,2439.1777106892673
1059.0,2512.066152951348
1060.0,2799.9159507335457
1061.0,2939.057452045324
1062.0,3600.397787725159
1063.0,3999.6146806554916
1064.0,4378.160455696423
1065.0,4831.567502203994
1066.0,5075.9590698023985
1067.0,5322.004872582303
1068.0,5827.030053075183
1069.0,5569.96182488249
1070.0,5041.955830986728
1071.0,5130.914941751366
1072.0,5051.935054289351
1073.0,4408.010745535296
1074.0,3858.4766922374797
1075.0,3767.6757340568897
1076.0,3618.8000194683427
1077.0,2920.737119176618
1078.0,2516.0851803969567
1079.0,2660.741834510262
1080.0,2596.411325623264
1081.0,2294.1085392570285
1082.0,2445.947717051716
1083.0,2347.1842160989704
1084.0,2738.839838398004
1085.0,3075.404599759834
1086.0,2921.1208464116226
1087.0,2667.977502805459
1088.0,1972.8414908249833
1089.0,1465.0742330030014
1090.0,1226.2559187810107
1091.0,999.2192210018468
1092.0,864.2644575308002
1093.0,1010.118036080315
1094.0,718.5281435092918
1095.0,623.7664520730509
1096.0,727.587013700387
1097.0,558.6504927131588
1098.0,585.343913796507
1099.0,496.2211511750233
1100.0,544.4003922764381
1101.0,596.6484069141594
1102.0,511.0707379834639
1103.0,584.4273282254322
1104.0,383.754336659776
1105.0,392.0683259574926
1106.0,385.75619267152916
1107.0,254.00146348798538
1108.0,376.9822375629322
1109.0,86.42595385685881
1110.0,189.76572837243216
1111.0,354.74360947670937
1112.0,129.85880196636455
1113.0,35.443676216833616
1114.0,338.3568863743839
1115.0,286.7217069108298
1116.0,261.2670510747709
1117.0,275.1143329772706
1118.0,27.24320511736003
1119.0,117.01102060471555
1120.0,120.71466342060904
1121.0,80.27234049797367
1122.0,167.25248535687194
1123.0,257.43820617275827
1124.0,225.52155731872088
1125.0,373.69730076619777
1126.0,160.52839200186253
1127.0,70.63639694264421
1128.0,287.39903460068103
1129.0,122.9522519785984
1130.0,257.45503947629766
1131.0,437.38295275929386
1132.0,360.73740501633654
1133.0,219.73458898121427
1134.0,160.29065984228072
1135.0,-8.221511803491978
1136.0,644.0069824414628
1137.0,484.5624156225868
1138.0,36.22258250043474
1139.0,475.7258389377653
1140.0,115.03328760181839
1141.0,139.6255499274948
1142.0,212.74420869085063
1143.0,70.7906352682117
1144.0,47.77924235069137
1145.0,225.63274537563308
1146.0,366.14023674609035
1147.0,412.7677129394394
1148.0,359.45087373695924
1149.0,243.91888805957385
1150.0,132.49011946333604
1151.0,56.82325736117602
1152.0,142.84396211186203
1153.0,314.8437205872056
1154.0,250.58672338383485
1155.0,44.77563367551011
1156.0,219.7279405996294
1157.0,164.94697139697593
1158.0,45.847569354028906
1159.0,57.79744540633938
1160.0,82.08959332353574
1161.0,50.6712393105627
1162.0,103.11486967680699
1163.0,78.33278832360682
1164.0,79.205219156739
1165.0,225.83981247295816
1166.0,350.9860776412033
1167.0,272.1363528824262
1168.0,268.15371242373755
1169.0,225.1989711414428
1170.0,174.96404914724198
1171.0,159.95433305482763
1172.0,8.410172843789688
1173.0,26.91992781657702
1174.0,-9.679084971245512
1175.0,118.35388016757614
1176.0,302.1116373725921
1177.0,143.58091159929498
1178.0,246.65507729405022
1179.0,359.1555888347211
1180.0,231.37870097666436
1181.0,70.44255919214271
1182.0,195.5951360910291
1183.0,497.16781530254354
1184.0,530.7409761341249
1185.0,347.6460716973527
1186.0,168.41742064305203
1187.0,156.00237470671578
1188.0,294.8442845455109
1189.0,329.4799065741162
1190.0,359.33306651712417
1191.0,307.5496163645513
1192.0,440.7962211389521
1193.0,642.2728270820554
1194.0,120.32422653545952
1195.0,230.673010635649
1196.0,227.5124998331867
1197.0,337.88084723296987
1198.0,598.2843740400155
1199.0,142.44942160116852
1200.0,410.33248804989336
1201.0,269.17688216877116
1202.0,477.33947596710175
1203.0,686.3284364107822
1204.0,90.27641423767498
1205.0,484.6069133653828
1206.0,485.29756702598365
1207.0,571.0173223939505
1208.0,617.9823218185295
1209.0,305.636762741455
1210.0,354.23517183901436
1211.0,643.207049221254
1212.0,546.5002289650405
1213.0,510.8148878788394
1214.0,508.597392791677
1215.0,373.44435067005196
1216.0,786.3708563726192
1217.0,473.23499819038517
1218.0,415.1027751270367
1219.0,518.1261273394509
1220.0,349.58790774924546
1221.0,504.6975188221518
1222.0,585.0789596722543
1223.0,359.7818327110351
1224.0,505.2560278996546
1225.0,862.9328270923651
1226.0,824.3138381565304
1227.0,758.8911904492247
1228.0,647.8604295714681
1229.0,682.7522216357298
1230.0,921.9730070388524
1231.0,1116.105526460628
1232.0,954.4007888416388
1233.0,624.7609489983946
1234.0,1102.6544582737604
1235.0,1233.0021073999708
1236.0,790.057015810921
1237.0,854.2593510707213
1238.0,1332.520365563606
1239.0,1041.3026333201997
1240.0,1042.1034632851074
1241.0,1278.8845975101694
1242.0,1189.4933977935452
1243.0,1001.6806592885215
1244.0,949.8581906929919
1245.0,682.0857846368011
1246.0,866.4903160377681
1247.0,1222.3317114763704
1248.0,850.0336517346005
1249.0,208.85984641504345
1250.0,770.9634456532665
1251.0,874.3075487362329
1252.0,549.152411440746
1253.0,548.8997288045653
1254.0,641.7122472459737
1255.0,370.4640570200959
1256.0,317.8713809006873
1257.0,143.54851134788808
1258.0,52.34362327470286
1259.0,131.55109123353967
1260.0,125.8327416827336
1261.0,311.4922704872211
1262.0,312.46905919900144
1263.0,268.1477480239944
1264.0,382.2309603213511
1265.0,410.35894890855303
1266.0,232.4207501286029
1267.0,460.9438021674287
1268.0,424.53191045344204
1269.0,378.3152702151916
1270.0,266.00413058923596
1271.0,24.67544686189455
1272.0,250.07844919805078
1273.0,198.0175405887443
1274.0,215.89473946441305
1275.0,179.46973290918552
1276.0,275.1026900972629
1277.0,549.61243961225
1278.0,129.71242369857157
1279.0,315.5419492642538
1280.0,316.4847342300361
1281.0,236.72769277269418
1282.0,349.38657015073795
1283.0,145.9112164163906
1284.0,109.71378989554782
1285.0,406.3615187702211
1286.0,481.573162418787
1287.0,375.2894205781273
1288.0,401.52173458898795
1289.0,387.56393747276104
1290.0,340.9228473022633
1291.0,504.6864801525754
1292.0,448.12455876928755
1293.0,348.11489564047156
1294.0,512.8123444710442
1295.0,444.23010553060743
1296.0,369.36734345463174
1297.0,470.31570291481745
1298.0,359.1496495089811
1299.0,318.719230326384
1300.0,587.6715459140562
1301.0,384.5896317875888
1302.0,459.04438631842515
1303.0,318.8278184324765
1304.0,361.675581362307
1305.0,516.0565604358721
1306.0,281.18445700038245
1307.0,539.0387623554425
1308.0,505.74232784095653
1309.0,231.26298497570153
1310.0,506.1555309600585
1311.0,810.0287270585052
1312.0,285.2388773676829
1313.0,251.54222809304952
1314.0,145.28318931827943
1315.0,534.566309437131
1316.0,667.5054414214665
1317.0,263.38964521461867
1318.0,424.105
1319.0,261.4426132823344
1320.0,320.00070981419384
1321.0,472.6341930119101
1322.0,335.37976054292085
1323.0,260.0692239830132
1324.0,531.8857074105638
1325.0,246.1988171191789
1326.0,547.1194949149285
1327.0,664.8746101321259
1328.0,246.53425144012553
1329.0,93.10851680008594
1330.0,292.9303029226473
1331.0,312.6038153681504
1332.0,529.3001203539628
1333.0,358.74219718829914
1334.0,70.89433901206354
1335.0,220.55746870053446
1336.0,170.72224554774496
1337.0,78.39949133668443
1338.0,82.43539570952164
1339.0,144.54769590196693
1340.0,237.61049620715573
1341.0,273.47392387818553
1342.0,109.09943828059158
1343.0,-13.513566806725585
1344.0,0.0
1345.0,0.0
1346.0,0.0
1347.0,0.0
1348.0,0.0
1349.0,0.0
1350.0,0.0
1351.0,0.0
1352.0,0.0
1353.0,0.0
1354.0,0.0
1355.0,0.0
1356.0,0.0
1357.0,0.0
1358.0,0.0
1359.0,0.0
1360.0,0.0
1361.0,0.0
1362.0,0.0
1363.0,0.0
1364.0,0.0
1365.0,0.0
1366.0,0.0
1367.0,0.0
1368.0,0.0
1369.0,0.0
1370.0,0.0
1371.0,0.0
1372.0,0.0
1373.0,0.0
1374.0,0.0
1375.0,0.0
1376.0,0.0
1377.0,0.0
1378.0,0.0
1379.0,0.0
1380.0,0.0
1381.0,0.0
1382.0,0.0
1383.0,0.0
1384.0,0.0
1385.0,0.0
1386.0,0.0
1387.0,0.0
1388.0,0.0
1389.0,0.0
1390.0,0.0
1391.0,0.0
1392.0,0.0
1393.0,0.0
1394.0,0.0
1395.0,0.0
1396.0,0.0
1397.0,0.0
1398.0,0.0
1399.0,0.0
1400.0,0.0
1401.0,0.0
1402.0,0.0
1403.0,0.0
1404.0,0.0
1405.0,0.0
1406.0,0.0
1407.0,0.0
1408.0,0.0
1409.0,0.0
1410.0,0.0
1411.0,0.0
1412.0,0.0
1413.0,0.0
1414.0,0.0
1415.0,0.0
1416.0,0.0
1417.0,0.0
1418.0,0.0
1419.0,0.0
1420.0,0.0
1421.0,0.0
1422.0,0.0
1423.0,0.0
1424.0,0.0
1425.0,0.0
1426.0,0.0
1427.0,0.0
1428.0,0.0
1429.0,0.0
1430.0,0.0
1431.0,0.0
1432.0,0.0
1433.0,0.0
1434.0,0.0
1435.0,0.0
1436.0,0.0
1437.0,0.0
1438.0,0.0
1439.0,0.0
1440.0,0.0
1441.0,0.0
1442.0,0.0
1443.0,0.0
1444.0,0.0
1445.0,0.0
1446.0,0.0
1447.0,0.0
1448.0,0.0
1449.0,0.0
1450.0,0.0
1451.0,0.0
1452.0,0.0
1453.0,0.0
1454.0,0.0
1455.0,0.0
1456.0,0.0
1457.0,0.0
1458.0,0.0
1459.0,0.0
1460.0,0.0
1461.0,0.0
1462.0,0.0
1463.0,0.0
1464.0,0.0
1465.0,0.0
1466.0,0.0
1467.0,0.0
1468.0,0.0
1469.0,0.0
1470.0,0.0
1471.0,0.0
1472.0,0.0
1473.0,0.0
1474.0,0.0
1475.0,0.0
1476.0,0.0
1477.0,0.0
1478.0,0.0
1479.0,0.0
1480.0,0.0
1481.0,0.0
1482.0,0.0
1483.0,0.0
1484.0,0.0
1485.0,0.0
1486.0,0.0
1487.0,0.0
1488.0,0.0
1489.0,0.0
1490.0,0.0
1491.0,0.0
1492.0,0.0
1493.0,0.0
1494.0,0.0
1495.0,0.0
1496.0,0.0
1497.0,0.0
1498.0,0.0
1499.0,0.0
1500.0,0.0
1501.0,0.0
1502.0,0.0
1503.0,0.0
1504.0,0.0
1505.0,0.0
1506.0,0.0
1507.0,0.0
1508.0,0.0
1509.0,0.0
1510.0,0.0
1511.0,0.0
1512.0,0.0
1513.0,0.0
1514.0,0.0
1515.0,0.0
1516.0,0.0
1517.0,0.0
1518.0,0.0
1519.0,0.0
1520.0,0.0
1521.0,0.0
1522.0,0.0
1523.0,0.0
1524.0,0.0
1525.0,0.0
1526.0,0.0
1527.0,0.0
1528.0,0.0
1529.0,0.0
1530.0,0.0
1531.0,0.0
1532.0,0.0
1533.0,0.0
1534.0,0.0
1535.0,0.0
1536.0,0.0
1537.0,0.0
1538.0,0.0
1539.0,0.0
1540.0,0.0
1541.0,0.0
1542.0,0.0
1543.0,0.0
1544.0,0.0
1545.0,0.0
1546.0,0.0
1547.0,0.0
1548.0,0.0
1549.0,0.0
1550.0,0.0
1551.0,0.0
1552.0,0.0
1553.0,0.0
1554.0,0.0
1555.0,0.0
1556.0,0.0
1557.0,0.0
1558.0,0.0
1559.0,0.0
1560.0,0.0
1561.0,0.0
1562.0,0.0
1563.0,0.0
1564.0,0.0
1565.0,0.0
1566.0,0.0
1567.0,0.0
1568.0,0.0
1569.0,0.0
1570.0,0.0
1571.0,0.0
1572.0,0.0
1573.0,0.0
1574.0,0.0
1575.0,0.0
1576.0,0.0
1577.0,0.0
1578.0,0.0
1579.0,0.0
1580.0,0.0
1581.0,0.0
1582.0,0.0
1583.0,0.0
1584.0,0.0
1585.0,0.0
1586.0,0.0
1587.0,0.0
1588.0,0.0
1589.0,0.0
1590.0,0.0
1591.0,0.0
1592.0,0.0
1593.0,0.0
1594.0,0.0
1595.0,0.0
1596.0,0.0
1597.0,0.0
1598.0,0.0
1599.0,0.0
