0.0,0.0
1.0,0.0
2.0,0.0
3.0,0.0
4.0,0.0
5.0,0.0
6.0,0.0
7.0,0.0
8.0,0.0
9.0,0.0
10.0,0.0
11.0,0.0
12.0,0.0
13.0,0.0
14.0,0.0
15.0,0.0
16.0,0.0
17.0,0.0
18.0,0.0
19.0,0.0
20.0,0.0
21.0,0.0
22.0,0.0
23.0,0.0
24.0,0.0
25.0,0.0
26.0,0.0
27.0,0.0
28.0,0.0
29.0,0.0
30.0,0.0
31.0,0.0
32.0,0.0
33.0,0.0
34.0,0.0
35.0,0.0
36.0,0.0
37.0,0.0
38.0,0.0
39.0,0.0
40.0,0.0
41.0,0.0
42.0,0.0
43.0,0.0
44.0,0.0
45.0,0.0
46.0,0.0
47.0,0.0
48.0,0.0
49.0,0.0
50.0,0.0
51.0,0.0
52.0,0.0
53.0,0.0
54.0,0.0
55.0,0.0
56.0,0.0
57.0,0.0
58.0,0.0
59.0,0.0
60.0,0.0
61.0,0.0
62.0,0.0
63.0,0.0
64.0,0.0
65.0,0.0
66.0,0.0
67.0,0.0
68.0,0.0
69.0,0.0
70.0,0.0
71.0,0.0
72.0,0.0
73.0,0.0
74.0,0.0
75.0,0.0
76.0,0.0
77.0,0.0
78.0,0.0
79.0,0.0
80.0,0.0
81.0,0.0
82.0,0.0
83.0,0.0
84.0,0.0
85.0,0.0
86.0,0.0
87.0,0.0
88.0,0.0
89.0,0.0
90.0,0.0
91.0,0.0
92.0,0.0
93.0,0.0
94.0,0.0
95.0,0.0
96.0,0.0
97.0,0.0
98.0,0.0
99.0,0.0
100.0,0.0
101.0,0.0
102.0,0.0
103.0,0.0
104.0,0.0
105.0,0.0
106.0,0.0
107.0,0.0
108.0,0.0
109.0,0.0
110.0,0.0
111.0,0.0
112.0,0.0
113.0,0.0
114.0,0.0
115.0,0.0
116.0,0.0
117.0,0.0
118.0,0.0
119.0,0.0
120.0,0.0
121.0,0.0
122.0,0.0
123.0,0.0
124.0,0.0
125.0,0.0
126.0,0.0
127.0,0.0
128.0,0.0
129.0,0.0
130.0,0.0
131.0,0.0
132.0,0.0
133.0,0.0
134.0,0.0
135.0,0.0
136.0,-109.57966860163542
137.0,15.097287601224782
138.0,4.0483614997039545
139.0,18.928692110020783
140.0,0.9520513114267493
141.0,14.597233278436857
142.0,14.141293445404154
143.0,21.841056106318092
144.0,69.676318333444
145.0,128.81792504739647
146.0,178.89998037078954
147.0,193.9738543114813
148.0,173.29379413358419
149.0,177.26776880107334
150.0,159.72279774330457
151.0,135.588224294514
152.0,118.48384423949072
153.0,118.38771861053468
154.0,108.83324234548063
155.0,105.51239412638373
156.0,91.88945370459248
157.0,52.444510962506584
158.0,21.84934049163047
159.0,15.224398594615515
160.0,24.127345123885696
161.0,47.628934965029906
162.0,85.45042630606787
163.0,62.715649329477515
164.0,56.04104051860188
165.0,79.37853852939558
166.0,111.30559404428502
167.0,113.37888696593417
168.0,83.59728449320927
169.0,65.55198919449262
170.0,72.33247279566105
171.0,87.70503053013
172.0,90.17677045175307
173.0,74.5130989642974
174.0,54.72369323004141
175.0,49.86177221741758
176.0,76.65153508648152
177.0,92.49161748860237
178.0,65.82507387562345
179.0,31.31025265773776
180.0,102.18036425111018
181.0,116.93089168411251
182.0,113.5336942787223
183.0,114.56310610844764
184.0,114.90994343510319
185.0,133.163397111061
186.0,136.7606702911812
187.0,108.814288280309
188.0,74.20701288506727
189.0,85.5872762467357
190.0,67.34032299048656
191.0,9.99752761250437
192.0,14.093840014557957
193.0,62.16123154289097
194.0,93.7410424748817
195.0,76.6040505608262
196.0,57.285407750201536
197.0,56.03256696198803
198.0,61.47308017262525
199.0,52.853543653518045
200.0,59.20900897196539
201.0,56.194621265954176
202.0,34.65343663235667
203.0,54.30482500541672
204.0,48.13971905406666
205.0,24.902223887633426
206.0,16.798915609164506
207.0,43.31464287006966
208.0,31.084809676223745
209.0,21.654905538652972
210.0,21.257588018841208
211.0,17.797005725264945
212.0,1.1222153635107956
213.0,7.0502806687279405
214.0,23.620951147287865
215.0,30.78712292615272
216.0,23.334005851359986
217.0,40.31112009374286
218.0,24.4406799036498
219.0,13.494685970807415
220.0,28.7840191031724
221.0,56.17898965946408
222.0,31.624534547161275
223.0,3.8925610676469518
224.0,19.632469452228644
225.0,18.896401817872686
226.0,45.209239674116816
227.0,14.6607621853571
228.0,2.6951720260513943
229.0,21.687387021048163
230.0,24.614745216340236
231.0,2.3556460485111117
232.0,15.69450147656168
233.0,18.407308175521703
234.0,4.579515257265208
235.0,32.922183994789506
236.0,12.047411640100695
237.0,34.98439447881366
238.0,55.38752166913081
239.0,35.988226875106534
240.0,56.54517959923049
241.0,27.147554495834505
242.0,19.8404538979553
243.0,33.9602529574381
244.0,40.994873360716376
245.0,65.81729040336214
246.0,75.86746717902427
247.0,61.67100218019205
248.0,43.29016488858719
249.0,46.37825218302246
250.0,46.80234345136855
251.0,70.79661147389506
252.0,87.58531118448411
253.0,93.39538108313835
254.0,123.44831254778704
255.0,143.1698472878026
256.0,146.74855864554885
257.0,105.82471421224072
258.0,24.81517718906393
259.0,29.48225525637587
260.0,10.38333538815716
261.0,6.2240042654509615
262.0,19.852455672698273
263.0,25.80299155446517
264.0,34.280360612910705
265.0,31.541851599768883
266.0,13.637450295588474
267.0,23.453574069339314
268.0,21.63398950193476
269.0,17.187146717558292
270.0,18.88700992210975
271.0,23.11491349349395
272.0,30.95766167513935
273.0,52.466024485245114
274.0,25.752555381437055
275.0,35.75607512576841
276.0,31.946823279520103
277.0,8.376343813959325
278.0,24.997146106622036
279.0,37.48393258801776
280.0,67.3210578230562
281.0,61.98698239104255
282.0,10.435478802960723
283.0,34.06209520947134
284.0,47.48320618452673
285.0,54.577229257036635
286.0,71.9415475284468
287.0,100.65309120793594
288.0,63.413437742461014
289.0,74.9551697899634
290.0,98.57241856158387
291.0,105.40622625778246
292.0,94.18987802497193
293.0,84.07561875692498
294.0,113.37237020957272
295.0,143.6034277202994
296.0,165.2000176098761
297.0,201.34237382993885
298.0,206.41025736952534
299.0,188.85799349016125
300.0,156.72364700886465
301.0,141.76228867155314
302.0,176.94579112709843
303.0,172.65292811923703
304.0,144.7221755093704
305.0,142.43356656888727
306.0,166.73474495197107
307.0,178.90498306078
308.0,222.52422104854446
309.0,264.44225974364184
310.0,277.29420907582033
311.0,295.6065802066204
312.0,360.76258027810513
313.0,408.3601037166621
314.0,502.5195586038244
315.0,629.7746201829226
316.0,764.7750793580661
317.0,894.7396760421658
318.0,1014.6662996007051
319.0,1220.0936525742381
320.0,1456.8751312815564
321.0,1683.0728130571815
322.0,1876.8267508283307
323.0,1821.199623129103
324.0,1480.7229252414863
325.0,1051.492767816424
326.0,669.1169911190115
327.0,381.19683712353503
328.0,291.757493388312
329.0,178.70835160792467
330.0,113.83422769336228
331.0,102.6923187155224
332.0,58.5735509461767
333.0,55.33389707000518
334.0,59.088981686283304
335.0,38.25399878427557
336.0,16.9658301999185
337.0,42.792648069211275
338.0,9.226400203423422
339.0,30.12292719190725
340.0,35.33113231335935
341.0,5.427760199325242
342.0,12.07724062150649
343.0,22.547087414695433
344.0,7.673149270138678
345.0,9.503306962706182
346.0,14.272557703683436
347.0,23.46016396224583
348.0,18.87934656453311
349.0,15.029113364472115
350.0,32.39256091213197
351.0,19.010131536682835
352.0,31.760773654891427
353.0,6.333956403580239
354.0,18.198048126648224
355.0,13.122011176717086
356.0,19.39849640993485
357.0,30.85740420709898
358.0,39.51754109484901
359.0,25.70228347675267
360.0,17.285212425602495
361.0,35.59662663445075
362.0,51.29035705772953
363.0,2.193761362089256
364.0,28.833223628317302
365.0,53.162679451119494
366.0,31.53868581434294
367.0,2.291363019171416
368.0,1.073666681876475
369.0,10.045638936339596
370.0,43.753476975972625
371.0,55.15633566803431
372.0,50.15292960422819
373.0,62.30342349619616
374.0,59.32490727497259
375.0,65.79409898226359
376.0,75.96652421997562
377.0,95.96655810415812
378.0,131.53137409810947
379.0,150.7096642440502
380.0,195.34950583986588
381.0,252.09332036746684
382.0,280.59221665877385
383.0,277.8248094336805
384.0,315.1433994285232
385.0,358.91418168057527
386.0,404.87301763434976
387.0,505.7547486952024
388.0,649.518531991733
389.0,741.3055811893524
390.0,945.2894130581275
391.0,1202.6138302007696
392.0,1461.403316522736
393.0,1707.8158902132645
394.0,1956.9324828564324
395.0,2164.22072207552
396.0,2230.9021239126723
397.0,2071.5133708709654
398.0,1733.5769658822985
399.0,1342.4125368746897
400.0,968.15667582309
401.0,707.7391490334862
402.0,507.07936914365763
403.0,360.45189677833304
404.0,272.100951523944
405.0,216.9419687743512
406.0,161.76773776309636
407.0,140.37944598194198
408.0,110.48463600426109
409.0,70.92359191581662
410.0,77.40861085521365
411.0,101.29105336757502
412.0,55.14750554857449
413.0,46.10230959351137
414.0,72.14499052158484
415.0,65.67142223997897
416.0,61.618395014594
417.0,69.41094519112896
418.0,78.76067458378081
419.0,101.17678649751575
420.0,139.74718608422424
421.0,176.2211184364871
422.0,158.10342219299037
423.0,122.9692717341954
424.0,110.58586111079227
425.0,107.48081169972805
426.0,80.81914370205946
427.0,68.53579711342226
428.0,32.24940003023996
429.0,27.80721168096904
430.0,33.40186861687387
431.0,30.600021552856077
432.0,43.37374792051608
433.0,24.39717941376476
434.0,0.37405586374350497
435.0,21.320929385805496
436.0,57.349062512205634
437.0,56.3794371372971
438.0,70.98331891093675
439.0,92.96095106699242
440.0,111.65668977627251
441.0,136.67345474737584
442.0,180.90413319863615
443.0,228.17926986902668
444.0,243.04250656257844
445.0,312.5853401165492
446.0,300.5035777146686
447.0,275.0553440076674
448.0,335.46498089305254
449.0,371.575376002455
450.0,386.63901207419383
451.0,326.7697759011378
452.0,288.79429045094645
453.0,274.11757863475356
454.0,167.45158670183545
455.0,117.45907682428864
456.0,128.64402396146895
457.0,116.24294209120079
458.0,77.89762255358673
459.0,55.18021591439041
460.0,53.94063680480723
461.0,48.679267159791024
462.0,44.698594571539324
463.0,22.875192510687345
464.0,5.776596588647784
465.0,20.625973739457354
466.0,17.15262035274061
467.0,24.82504821632854
468.0,7.4209511541718935
469.0,7.734580736372858
470.0,4.034896002738114
471.0,22.365694697532696
472.0,20.45580307074481
473.0,23.07614890955187
474.0,18.584836122380693
475.0,11.400138672303294
476.0,10.343760057638429
477.0,12.509550467421404
478.0,7.1628456627319785
479.0,1.3138652237511068
480.0,16.547241434780354
481.0,16.17647103551187
482.0,11.558004487405148
483.0,9.947330243590056
484.0,16.551083833289738
485.0,21.30428230574486
486.0,7.6825196552557715
487.0,5.575746493575688
488.0,38.1217335131031
489.0,44.70067645031735
490.0,59.08577955352005
491.0,16.806034585973816
492.0,12.059777598062746
493.0,37.58897097538589
494.0,36.85193710924349
495.0,23.439011764332804
496.0,2.52594483067588
497.0,43.88901741050875
498.0,45.3165600954207
499.0,15.522148829973787
500.0,8.913145631318294
501.0,52.604228869000906
502.0,25.986208644254937
503.0,18.58596683538844
504.0,39.38964992771255
505.0,47.14635942917681
506.0,45.2175914822157
507.0,77.67677249034544
508.0,70.56996799614924
509.0,60.162065746899785
510.0,63.88448355379715
511.0,64.19239250379128
512.0,64.68758092047634
513.0,117.64626093056302
514.0,100.68133386347647
515.0,111.96539623712968
516.0,149.40119822155748
517.0,151.19278374078525
518.0,184.64546713751028
519.0,203.6460054272624
520.0,227.75797151756154
521.0,242.0415945350508
522.0,277.7103674901173
523.0,352.7875511278465
524.0,374.65531047727745
525.0,444.6761478654096
526.0,500.6365166383781
527.0,539.2458315015027
528.0,539.7454125720393
529.0,482.685123699408
530.0,442.77431358991254
531.0,413.6529056398774
532.0,354.3649702386175
533.0,300.7082911463947
534.0,249.36518526848863
535.0,181.96367350699086
536.0,161.87366546901558
537.0,172.04421111474502
538.0,143.15076162063826
539.0,115.99847702609239
540.0,102.77911267561335
541.0,88.58498899512065
542.0,97.0380501654702
543.0,81.71718782635692
544.0,84.0809257403606
545.0,62.99134195166828
546.0,66.66187604389015
547.0,108.04657793879443
548.0,46.88914155435494
549.0,28.71089190032434
550.0,4.332082928010324
551.0,21.308934033485983
552.0,52.843792620349035
553.0,53.56710486859993
554.0,70.85694322855889
555.0,25.384311911959525
556.0,41.20655326039343
557.0,37.116511012203794
558.0,7.928102620365462
559.0,5.275160673872383
560.0,27.811984889981996
561.0,17.980676983443725
562.0,15.891408051423008
563.0,45.164860528212785
564.0,46.74755957090613
565.0,13.895437939433515
566.0,11.452674860099755
567.0,17.5274964370805
568.0,15.667609883127685
569.0,11.681174962959235
570.0,3.541006360589891
571.0,10.068948791406843
572.0,36.02253302899608
573.0,65.04055941773166
574.0,80.43292091076727
575.0,74.87909921529256
576.0,60.550018518789045
577.0,54.56007942148489
578.0,50.07965150306964
579.0,34.23826179899106
580.0,82.03176767408588
581.0,116.32996684279577
582.0,93.67159453140204
583.0,72.61649982480755
584.0,69.53496990224794
585.0,71.72323781456797
586.0,114.36974859729327
587.0,57.46254028516005
588.0,65.78673107683277
589.0,49.573050414038285
590.0,47.55274595242968
591.0,81.52993257759815
592.0,7.577721829478454
593.0,49.60690023645902
594.0,41.50118969987874
595.0,40.31536203186063
596.0,42.62582872857833
597.0,25.978143107268618
598.0,8.470013688397506
599.0,12.697933096097765
600.0,5.667183163033969
601.0,16.618056911403126
602.0,48.58311770986086
603.0,44.635033901696914
604.0,29.61830168983976
605.0,41.07783187580338
606.0,42.78739597440063
607.0,26.89348812161789
608.0,14.238051182983645
609.0,17.562957401293975
610.0,32.682148319504215
611.0,49.544071160819435
612.0,71.90462686093808
613.0,47.68106732830643
614.0,27.38456270704435
615.0,29.599332501695805
616.0,74.56278719985693
617.0,121.64779963727806
618.0,82.55680382475035
619.0,57.937582576348674
620.0,116.63395600818004
621.0,143.6929745572365
622.0,182.36068490158462
623.0,241.73097471112598
624.0,262.57418151972234
625.0,245.07278841970552
626.0,245.76007445773516
627.0,166.78682173047466
628.0,93.15962604971806
629.0,38.535604451101094
630.0,19.014290736629558
631.0,45.20856588237264
632.0,34.38494518720558
633.0,5.3610772265858655
634.0,26.610596193889226
635.0,53.5150962766083
636.0,47.49551555435678
637.0,29.151976796449915
638.0,10.594068753538403
639.0,14.005240782213253
640.0,6.707829100176115
641.0,6.478059982154603
642.0,17.572839623620194
643.0,43.93459607961357
644.0,15.12475286038867
645.0,18.103448483545893
646.0,23.156601929264017
647.0,13.109890333244625
648.0,14.325320966372956
649.0,42.44214046758767
650.0,46.946149317436095
651.0,6.240179601217344
652.0,7.098880290583347
653.0,46.34816417025793
654.0,44.897008498521046
655.0,41.080073519461344
656.0,61.39439516678065
657.0,51.37258969094692
658.0,6.772191042023441
659.0,70.00483517027085
660.0,86.36478410593229
661.0,33.94290733090939
662.0,102.62638816873731
663.0,131.6877509813265
664.0,104.8260299509419
665.0,156.85812591045118
666.0,212.42916163298221
667.0,172.69480710262744
668.0,232.08906035132716
669.0,266.6897544728039
670.0,351.7784953399524
671.0,454.79166388892975
672.0,497.6133253798512
673.0,584.4358128040941
674.0,774.5762707936381
675.0,969.513049425417
676.0,1233.092925196972
677.0,1560.516905650765
678.0,1969.2023498864567
679.0,2486.2465861768296
680.0,3094.866926216574
681.0,3774.1929826205537
682.0,4525.75910946314
683.0,5300.041906779264
684.0,5754.709122391326
685.0,5652.965995450969
686.0,5020.097528431359
687.0,4022.8993554881863
688.0,3024.473848768635
689.0,2304.4459974122237
690.0,1750.5614740541498
691.0,1356.1976849100045
692.0,1051.4663274848476
693.0,827.7446012970474
694.0,741.847244062322
695.0,595.8540324059412
696.0,518.6057702348129
697.0,476.0566079881237
698.0,392.16601635009516
699.0,337.2851538290709
700.0,324.8474644244804
701.0,289.20241693013656
702.0,244.24666685349962
703.0,201.35451403564332
704.0,117.03965938972121
705.0,148.2504688774349
706.0,131.72382226206128
707.0,81.73108947493915
708.0,88.63664044754601
709.0,90.11470353988769
710.0,92.1323540212266
711.0,113.61080392785084
712.0,77.62936484277532
713.0,80.73812310261005
714.0,60.86553842959934
715.0,4.441960910375334
716.0,27.982825321689173
717.0,39.2496321327559
718.0,69.44062967329475
719.0,43.21228598731214
720.0,31.874606831119603
721.0,61.76890297870627
722.0,42.01875730339171
723.0,9.046659097741273
724.0,30.13250305494067
725.0,31.240421540706063
726.0,12.972892501105957
727.0,5.573823585237285
728.0,20.03758218070129
729.0,13.6365422453953
730.0,6.754461228066069
731.0,13.013811108340906
732.0,22.399925458915533
733.0,10.619815295673451
734.0,22.645033175903297
735.0,53.69795400428614
736.0,17.18582105596741
737.0,23.631589448930747
738.0,0.5583288818662645
739.0,5.578817738419602
740.0,6.332809578913924
741.0,11.115650283412279
742.0,35.55847036278768
743.0,45.88579995163353
744.0,22.602865121131238
745.0,1.527931403570075
746.0,13.809781449756786
747.0,26.522336935399988
748.0,16.20495882824456
749.0,5.208818328440162
750.0,9.567196437724087
751.0,74.6205810312832
752.0,88.26800051416079
753.0,37.37540699104211
754.0,8.276762407146292
755.0,21.33023026468562
756.0,29.834196322410886
757.0,34.47470248918457
758.0,52.50881356597618
759.0,77.79088572187477
760.0,43.41123684590447
761.0,6.191555405877279
762.0,23.20631338446652
763.0,106.4926451457211
764.0,83.37697206605077
765.0,88.79637727372605
766.0,101.27439047671545
767.0,94.40500284796046
768.0,67.6644412103448
769.0,89.17138986115427
770.0,165.7754806967781
771.0,108.92208024617915
772.0,142.56127333412303
773.0,166.86572834423444
774.0,103.3381647138959
775.0,94.36547613689955
776.0,93.95209952629668
777.0,90.92589249237207
778.0,107.12035101315703
779.0,99.91416392888003
780.0,103.91302369924692
781.0,72.47826512141144
782.0,96.55455974912881
783.0,91.83407736116257
784.0,52.91179872840808
785.0,30.910866180045225
786.0,34.39015347999341
787.0,30.006894049893898
788.0,51.77837937502892
789.0,102.19768330139287
790.0,86.7927559698976
791.0,41.203306461514835
792.0,41.92010704003149
793.0,65.10964533989288
794.0,53.90583055056254
795.0,15.890072386010418
796.0,37.50124489175945
797.0,35.88514144974936
798.0,4.2738291140434015
799.0,26.549013520168323
800.0,24.274807526331287
801.0,43.41910651753888
802.0,18.091881356346974
803.0,28.40143847506907
804.0,33.04083548129469
805.0,4.792378073755317
806.0,13.852303112741106
807.0,12.985310535503494
808.0,73.29703586618399
809.0,61.77482799789675
810.0,33.407714918445535
811.0,31.26741692282507
812.0,9.284375166686136
813.0,50.91683710300462
814.0,57.14287261826771
815.0,56.80274785457477
816.0,27.412206514126808
817.0,56.17717631365172
818.0,60.8654177228204
819.0,42.280485853900196
820.0,47.970672901162274
821.0,43.999173602536295
822.0,30.629382923327935
823.0,23.174840729297436
824.0,48.52193855196003
825.0,39.39868019333918
826.0,58.03386144484598
827.0,75.62584113042341
828.0,62.376522026141906
829.0,54.10923999996853
830.0,67.8086254060632
831.0,70.25210949824691
832.0,33.978827369776035
833.0,83.14378910319458
834.0,110.33650095105932
835.0,70.60109607600995
836.0,32.20821282603024
837.0,42.86044753101969
838.0,53.95597233161255
839.0,23.818114850658603
840.0,27.86007473900603
841.0,5.00857408367546
842.0,27.651847986127713
843.0,50.08755169427793
844.0,65.72513983771445
845.0,67.4511096050481
846.0,67.63308224754364
847.0,81.7853487836748
848.0,78.95279931599192
849.0,45.11618423446526
850.0,36.57799244448519
851.0,61.651205291102414
852.0,52.25482609904514
853.0,58.264305282337986
854.0,42.05899120962071
855.0,11.713906478191616
856.0,28.803941586127447
857.0,71.33095244336145
858.0,70.69421655453698
859.0,38.884603418213395
860.0,5.8312159082546735
861.0,12.487303059751017
862.0,10.345339894363082
863.0,3.1996927968253157
864.0,32.244088455927816
865.0,75.32943118692569
866.0,55.053617297883335
867.0,50.775252117231865
868.0,35.76105164941811
869.0,45.38344653110747
870.0,18.27964564545094
871.0,48.882720889290844
872.0,28.197545079773835
873.0,40.89356846295578
874.0,64.16883997589913
875.0,24.96960803628179
876.0,39.842176288533246
877.0,63.846957942916006
878.0,74.21147409807674
879.0,34.81058346101895
880.0,77.29769738956244
881.0,55.44663467805062
882.0,45.31783530585528
883.0,67.05639529915483
884.0,54.876061648601194
885.0,32.330666549846704
886.0,10.639038202087882
887.0,14.413726631695457
888.0,28.402523849436363
889.0,15.115955086578996
890.0,23.96726742344306
891.0,26.03418416774066
892.0,40.71517504341878
893.0,51.96124295168451
894.0,43.91279108089529
895.0,34.53135080111188
896.0,17.732854940971862
897.0,27.372356465263714
898.0,10.376695540606526
899.0,24.197289526796926
900.0,8.902378923749662
901.0,75.59492766497483
902.0,64.32483697136271
903.0,24.801088827125852
904.0,49.27297241662603
905.0,82.30505528203803
906.0,82.20150690703548
907.0,77.30037101084191
908.0,86.86516442364024
909.0,91.18504172396763
910.0,92.63861418361208
911.0,118.2543108996307
912.0,101.69421685213695
913.0,99.0139698659811
914.0,113.78967659567897
915.0,81.18974868512528
916.0,112.01126163434502
917.0,44.411740539316696
918.0,127.68196815883083
919.0,94.04189539796393
920.0,84.67990508599844
921.0,89.89894200160307
922.0,69.16914393732306
923.0,42.81896985756409
924.0,45.72877765176481
925.0,63.68064505763317
926.0,59.72820662180846
927.0,63.44284648961244
928.0,53.78081160010915
929.0,61.57059448089277
930.0,56.249262900771285
931.0,42.222734097554266
932.0,72.82809359905376
933.0,93.31502948119744
934.0,86.31000569902204
935.0,63.68425900024758
936.0,26.12472854577154
937.0,10.793878321652647
938.0,12.787066955765477
939.0,20.53370314650614
940.0,18.391011638514133
941.0,53.33420793686244
942.0,20.739036350522777
943.0,19.471701169065813
944.0,33.525236591943056
945.0,28.321267239656887
946.0,23.725685805358843
947.0,15.33893577863575
948.0,7.893077772736357
949.0,5.061469854759776
950.0,31.768705988295807
951.0,10.818128167771482
952.0,10.233679649837708
953.0,24.916739179807184
954.0,6.85947251151364
955.0,11.22320221050298
956.0,25.796071441492867
957.0,21.30394932703727
958.0,20.268620000000002
959.0,6.344110818369188
960.0,30.991403102072084
961.0,9.534113221951525
962.0,8.12858797601773
963.0,10.769641684165446
964.0,3.3382468813751514
965.0,33.777435683503136
966.0,36.404485189084646
967.0,22.328056431652918
968.0,44.42641255668402
969.0,63.93970943116926
970.0,43.462312307087586
971.0,57.09946301940354
972.0,3.6371613450440736
973.0,9.970672706164295
974.0,28.53371692885842
975.0,5.889231526709961
976.0,36.33894388115723
977.0,25.02430512649788
978.0,10.254291591378683
979.0,3.604974007887062
980.0,7.370516584110746
981.0,25.03357988022905
982.0,27.20112619682829
983.0,43.77701302945947
984.0,50.7511970383326
985.0,37.8735724226816
986.0,61.718726174486484
987.0,64.86077986643649
988.0,53.716878312468914
989.0,25.629758432191068
990.0,54.7587229886905
991.0,9.97390616265854
992.0,12.667676802494139
993.0,3.6205344734577407
994.0,25.543897839262755
995.0,54.558296943823926
996.0,99.19959982345783
997.0,98.2373689238926
998.0,111.16672855389166
999.0,99.5675920687286
1000.0,132.60739303301165
1001.0,133.7603966544907
1002.0,179.2527589967795
1003.0,199.398161256657
1004.0,218.97790804882413
1005.0,277.13580530193207
1006.0,329.18721270641527
1007.0,390.9846172639206
1008.0,399.18896879780505
1009.0,512.7039668473584
1010.0,560.1747923791557
1011.0,603.3686245444927
1012.0,635.2107848884157
1013.0,618.6232720851756
1014.0,559.2299107349708
1015.0,489.66507548055813
1016.0,435.81297320273364
1017.0,391.5063068833961
1018.0,327.69620672176416
1019.0,254.83643733522743
1020.0,221.82797452017542
1021.0,132.77666689602162
1022.0,59.556574166975835
1023.0,85.6295474636596
1024.0,69.26238559974081
1025.0,61.76473777775262
1026.0,53.711333462928955
1027.0,35.4517117846633
1028.0,16.470291388171137
1029.0,29.68378868725485
1030.0,106.23123605473448
1031.0,103.88736581059948
1032.0,89.58323991445198
1033.0,31.461078926539468
1034.0,128.61009123943163
1035.0,131.26978559248872
1036.0,160.5396016568378
1037.0,95.11334643352012
1038.0,165.36366777352808
1039.0,150.8239805439139
1040.0,136.86315997776916
1041.0,169.21468021223066
1042.0,193.66417556013292
1043.0,218.59380779900488
1044.0,267.3471929098392
1045.0,289.5096051285352
1046.0,289.0368969535852
1047.0,381.00737721946666
1048.0,407.55517057122535
1049.0,450.43311325986906
1050.0,456.0267164676817
1051.0,478.3871933455682
1052.0,574.0554669534397
1053.0,643.365732230984
1054.0,733.8037158187801
1055.0,845.1778823417004
1056.0,1009.8258452555156
1057.0,1172.8315573745858
1058.0,1401.3198158471098
1059.0,1632.200672678851
1060.0,1817.4927849029193
1061.0,2209.916688811996
1062.0,2544.21666536656
1063.0,2924.7101841667786
1064.0,3406.063518906359
1065.0,3843.777623815451
1066.0,4158.3478707922295
1067.0,4494.8259443428105
1068.0,4570.719408826881
1069.0,4536.261419578089
1070.0,4343.432743186143
1071.0,3938.419786455146
1072.0,3532.9416968226733
1073.0,3123.7136245904176
1074.0,2657.2225136114002
1075.0,2233.34908098567
1076.0,1901.8346375093931
1077.0,1707.7728090829423
1078.0,1477.3205098874498
1079.0,1299.8844958509649
1080.0,1209.0952557336893
1081.0,1044.670345418519
1082.0,924.7030354823659
1083.0,829.2130934203603
1084.0,763.2617827358447
1085.0,669.0594914242679
1086.0,625.3347299494462
1087.0,557.1804152529429
1088.0,479.5488069024597
1089.0,463.9224374566618
1090.0,435.90772667843885
1091.0,356.2741695321764
1092.0,309.7687956508317
1093.0,311.60957263523414
1094.0,246.48253777324365
1095.0,222.57327702742995
1096.0,202.3549955761492
1097.0,169.06580172929446
1098.0,147.03995885010417
1099.0,109.57188207252442
1100.0,87.29284385168205
1101.0,90.1644885301184
1102.0,99.84364769681787
1103.0,108.5243421135398
1104.0,104.28732113802471
1105.0,91.28544946939691
1106.0,79.07132926604694
1107.0,77.3692403562766
1108.0,67.43687082114087
1109.0,29.97146515807475
1110.0,53.53960686571885
1111.0,3.150126120816251
1112.0,47.1587940609768
1113.0,35.71993800990997
1114.0,21.806140978239092
1115.0,-0.8896636170413057
1116.0,38.29972569839057
1117.0,38.29819341763579
1118.0,34.363527242813916
1119.0,17.48473974472327
1120.0,27.787274911981278
1121.0,4.1815802078151325
1122.0,24.894081481734194
1123.0,1.6314145124775736
1124.0,12.552427726268128
1125.0,8.633824509977332
1126.0,3.0513660049247546
1127.0,12.281112476732778
1128.0,38.37559895512331
1129.0,7.856493668291077
1130.0,0.8599983207303357
1131.0,7.22225170303279
1132.0,4.361095411343195
1133.0,48.04068745048017
1134.0,18.604863956236674
1135.0,9.331199893141179
1136.0,25.799074269610387
1137.0,5.088851618532501
1138.0,4.728849743518282
1139.0,39.72315621671406
1140.0,33.99254630416839
1141.0,17.457235196280767
1142.0,19.96464028172357
1143.0,33.34713821850691
1144.0,43.9105109446177
1145.0,40.0790860498741
1146.0,22.965891678967427
1147.0,12.215075645892123
1148.0,44.59445554568695
1149.0,22.05966105307997
1150.0,1.5587659235857023
1151.0,8.845696416518237
1152.0,16.35112545601901
1153.0,52.10237892105109
1154.0,14.029307016613046
1155.0,15.992146142439992
1156.0,6.733375236408549
1157.0,23.129920925552998
1158.0,39.157003260482114
1159.0,35.44381870611476
1160.0,40.8527708611325
1161.0,30.583817548089755
1162.0,14.637818707788423
1163.0,31.64194503647882
1164.0,39.268467084552256
1165.0,16.745538668126166
1166.0,8.903191454116879
1167.0,23.624650642751252
1168.0,45.38548309412659
1169.0,35.966009020688006
1170.0,32.28756816378718
1171.0,67.19846025103874
1172.0,67.17028492012776
1173.0,27.81113252159908
1174.0,19.717710224283024
1175.0,50.31618255656145
1176.0,47.08565619134338
1177.0,47.74953940039103
1178.0,81.4033118744013
1179.0,56.69923808675497
1180.0,30.682869984942485
1181.0,27.13768302436019
1182.0,31.789974309671138
1183.0,76.84576640015204
1184.0,91.9056360152071
1185.0,63.5104216239302
1186.0,68.88138384027411
1187.0,47.509705511124
1188.0,25.746969773480874
1189.0,91.77678339065643
1190.0,37.56254772026334
1191.0,43.82809309948391
1192.0,82.72547394869795
1193.0,53.784909358295685
1194.0,59.64176645230427
1195.0,86.37015849288294
1196.0,53.34806935165437
1197.0,48.398125529271375
1198.0,38.51297523265458
1199.0,36.353433134723716
1200.0,93.54825925060541
1201.0,89.01421855068851
1202.0,45.61629070799357
1203.0,37.277511531711525
1204.0,57.06380672765149
1205.0,55.560432412787264
1206.0,13.405978899294496
1207.0,10.862601293552661
1208.0,37.52207685477966
1209.0,34.14986149124066
1210.0,12.599390663628448
1211.0,53.78293369270411
1212.0,40.46008790174403
1213.0,42.70300652063454
1214.0,57.784672685207056
1215.0,12.404771177047099
1216.0,25.138527918696585
1217.0,34.015764538489925
1218.0,53.720627792035195
1219.0,30.229445109186223
1220.0,83.68740841019628
1221.0,46.93714409868865
1222.0,48.7662936556187
1223.0,63.90731604234119
1224.0,62.63105787983142
1225.0,58.088481335809746
1226.0,34.29216635477633
1227.0,41.614364707636724
1228.0,60.34735316160787
1229.0,80.61165047247398
1230.0,82.75148105214856
1231.0,79.19674576564641
1232.0,80.98251530327401
1233.0,25.180784857529844
1234.0,14.881144502289052
1235.0,3.7430252785234277
1236.0,15.51301715547799
1237.0,6.275418058432551
1238.0,5.051182297234583
1239.0,32.57548675640381
1240.0,59.35300083835445
1241.0,64.64970927535286
1242.0,76.43994805975304
1243.0,144.07067737315793
1244.0,133.92618584025362
1245.0,87.93932009350706
1246.0,88.86136395498686
1247.0,97.02492200485261
1248.0,65.02026744298087
1249.0,79.45399122351498
1250.0,37.83959811176741
1251.0,17.252930443093355
1252.0,25.046660431381785
1253.0,12.28732446421584
1254.0,0.3723138872128694
1255.0,0.0
1256.0,0.0
1257.0,0.0
1258.0,0.0
1259.0,0.0
1260.0,0.0
1261.0,0.0
1262.0,0.0
1263.0,0.0
1264.0,0.0
1265.0,0.0
1266.0,0.0
1267.0,0.0
1268.0,0.0
1269.0,0.0
1270.0,0.0
1271.0,0.0
1272.0,0.0
1273.0,0.0
1274.0,0.0
1275.0,0.0
1276.0,0.0
1277.0,0.0
1278.0,0.0
1279.0,0.0
1280.0,0.0
1281.0,0.0
1282.0,0.0
1283.0,0.0
1284.0,0.0
1285.0,0.0
1286.0,0.0
1287.0,0.0
1288.0,0.0
1289.0,0.0
1290.0,0.0
1291.0,0.0
1292.0,0.0
1293.0,0.0
1294.0,0.0
1295.0,0.0
1296.0,0.0
1297.0,0.0
1298.0,0.0
1299.0,0.0
1300.0,0.0
1301.0,0.0
1302.0,0.0
1303.0,0.0
1304.0,0.0
1305.0,0.0
1306.0,0.0
1307.0,0.0
1308.0,0.0
1309.0,0.0
1310.0,0.0
1311.0,0.0
1312.0,0.0
1313.0,0.0
1314.0,0.0
1315.0,0.0
1316.0,0.0
1317.0,0.0
1318.0,0.0
1319.0,0.0
1320.0,0.0
1321.0,0.0
1322.0,0.0
1323.0,0.0
1324.0,0.0
1325.0,0.0
1326.0,0.0
1327.0,0.0
1328.0,0.0
1329.0,0.0
1330.0,0.0
1331.0,0.0
1332.0,0.0
1333.0,0.0
1334.0,0.0
1335.0,0.0
1336.0,0.0
1337.0,0.0
1338.0,0.0
1339.0,0.0
1340.0,0.0
1341.0,0.0
1342.0,0.0
1343.0,0.0
1344.0,0.0
1345.0,0.0
1346.0,0.0
1347.0,0.0
1348.0,0.0
1349.0,0.0
1350.0,0.0
1351.0,0.0
1352.0,0.0
1353.0,0.0
1354.0,0.0
1355.0,0.0
1356.0,0.0
1357.0,0.0
1358.0,0.0
1359.0,0.0
1360.0,0.0
1361.0,0.0
1362.0,0.0
1363.0,0.0
1364.0,0.0
1365.0,0.0
1366.0,0.0
1367.0,0.0
1368.0,0.0
1369.0,0.0
1370.0,0.0
1371.0,0.0
1372.0,0.0
1373.0,0.0
1374.0,0.0
1375.0,0.0
1376.0,0.0
1377.0,0.0
1378.0,0.0
1379.0,0.0
1380.0,0.0
1381.0,0.0
1382.0,0.0
1383.0,0.0
1384.0,0.0
1385.0,0.0
1386.0,0.0
1387.0,0.0
1388.0,0.0
1389.0,0.0
1390.0,0.0
1391.0,0.0
1392.0,0.0
1393.0,0.0
1394.0,0.0
1395.0,0.0
1396.0,0.0
1397.0,0.0
1398.0,0.0
1399.0,0.0
1400.0,0.0
1401.0,0.0
1402.0,0.0
1403.0,0.0
1404.0,0.0
1405.0,0.0
1406.0,0.0
1407.0,0.0
1408.0,0.0
1409.0,0.0
1410.0,0.0
1411.0,0.0
1412.0,0.0
1413.0,0.0
1414.0,0.0
1415.0,0.0
1416.0,0.0
1417.0,0.0
1418.0,0.0
1419.0,0.0
1420.0,0.0
1421.0,0.0
1422.0,0.0
1423.0,0.0
1424.0,0.0
1425.0,0.0
1426.0,0.0
1427.0,0.0
1428.0,0.0
1429.0,0.0
1430.0,0.0
1431.0,0.0
1432.0,0.0
1433.0,0.0
1434.0,0.0
1435.0,0.0
1436.0,0.0
1437.0,0.0
1438.0,0.0
1439.0,0.0
1440.0,0.0
1441.0,0.0
1442.0,0.0
1443.0,0.0
1444.0,0.0
1445.0,0.0
1446.0,0.0
1447.0,0.0
1448.0,0.0
1449.0,0.0
1450.0,0.0
1451.0,0.0
1452.0,0.0
1453.0,0.0
1454.0,0.0
1455.0,0.0
1456.0,0.0
1457.0,0.0
1458.0,0.0
1459.0,0.0
1460.0,0.0
1461.0,0.0
1462.0,0.0
1463.0,0.0
1464.0,0.0
1465.0,0.0
1466.0,0.0
1467.0,0.0
1468.0,0.0
1469.0,0.0
1470.0,0.0
1471.0,0.0
1472.0,0.0
1473.0,0.0
1474.0,0.0
1475.0,0.0
1476.0,0.0
1477.0,0.0
1478.0,0.0
1479.0,0.0
1480.0,0.0
1481.0,0.0
1482.0,0.0
1483.0,0.0
1484.0,0.0
1485.0,0.0
1486.0,0.0
1487.0,0.0
1488.0,0.0
1489.0,0.0
1490.0,0.0
1491.0,0.0
1492.0,0.0
1493.0,0.0
1494.0,0.0
1495.0,0.0
1496.0,0.0
1497.0,0.0
1498.0,0.0
1499.0,0.0
1500.0,0.0
1501.0,0.0
1502.0,0.0
1503.0,0.0
1504.0,0.0
1505.0,0.0
1506.0,0.0
1507.0,0.0
1508.0,0.0
1509.0,0.0
1510.0,0.0
1511.0,0.0
1512.0,0.0
1513.0,0.0
1514.0,0.0
1515.0,0.0
1516.0,0.0
1517.0,0.0
1518.0,0.0
1519.0,0.0
1520.0,0.0
1521.0,0.0
1522.0,0.0
1523.0,0.0
1524.0,0.0
1525.0,0.0
1526.0,0.0
1527.0,0.0
1528.0,0.0
1529.0,0.0
1530.0,0.0
1531.0,0.0
1532.0,0.0
1533.0,0.0
1534.0,0.0
1535.0,0.0
1536.0,0.0
1537.0,0.0
1538.0,0.0
1539.0,0.0
1540.0,0.0
1541.0,0.0
1542.0,0.0
1543.0,0.0
1544.0,0.0
1545.0,0.0
1546.0,0.0
1547.0,0.0
1548.0,0.0
1549.0,0.0
1550.0,0.0
1551.0,0.0
1552.0,0.0
1553.0,0.0
1554.0,0.0
1555.0,0.0
1556.0,0.0
1557.0,0.0
1558.0,0.0
1559.0,0.0
1560.0,0.0
1561.0,0.0
1562.0,0.0
1563.0,0.0
1564.0,0.0
1565.0,0.0
1566.0,0.0
1567.0,0.0
1568.0,0.0
1569.0,0.0
1570.0,0.0
1571.0,0.0
1572.0,0.0
1573.0,0.0
1574.0,0.0
1575.0,0.0
1576.0,0.0
1577.0,0.0
1578.0,0.0
1579.0,0.0
1580.0,0.0
1581.0,0.0
1582.0,0.0
1583.0,0.0
1584.0,0.0
1585.0,0.0
1586.0,0.0
1587.0,0.0
1588.0,0.0
1589.0,0.0
1590.0,0.0
1591.0,0.0
1592.0,0.0
1593.0,0.0
1594.0,0.0
1595.0,0.0
1596.0,0.0
1597.0,0.0
1598.0,0.0
1599.0,0.0
