0.0,0.0
1.0,0.0
2.0,0.0
3.0,0.0
4.0,0.0
5.0,0.0
6.0,0.0
7.0,0.0
8.0,0.0
9.0,0.0
10.0,0.0
11.0,0.0
12.0,0.0
13.0,0.0
14.0,0.0
15.0,0.0
16.0,0.0
17.0,0.0
18.0,0.0
19.0,0.0
20.0,0.0
21.0,0.0
22.0,0.0
23.0,0.0
24.0,0.0
25.0,0.0
26.0,0.0
27.0,0.0
28.0,0.0
29.0,0.0
30.0,0.0
31.0,0.0
32.0,0.0
33.0,0.0
34.0,0.0
35.0,0.0
36.0,0.0
37.0,0.0
38.0,0.0
39.0,0.0
40.0,0.0
41.0,0.0
42.0,0.0
43.0,0.0
44.0,0.0
45.0,0.0
46.0,0.0
47.0,0.0
48.0,0.0
49.0,0.0
50.0,0.0
51.0,0.0
52.0,0.0
53.0,0.0
54.0,0.0
55.0,0.0
56.0,0.0
57.0,0.0
58.0,0.0
59.0,0.0
60.0,0.0
61.0,0.0
62.0,0.0
63.0,0.0
64.0,0.0
65.0,0.0
66.0,0.0
67.0,0.0
68.0,0.0
69.0,0.0
70.0,0.0
71.0,0.0
72.0,0.0
73.0,0.0
74.0,0.0
75.0,0.0
76.0,0.0
77.0,0.0
78.0,0.0
79.0,0.0
80.0,0.0
81.0,0.0
82.0,0.0
83.0,0.0
84.0,0.0
85.0,0.0
86.0,0.0
87.0,0.0
88.0,0.0
89.0,0.0
90.0,0.0
91.0,0.0
92.0,0.0
93.0,0.0
94.0,321.31254475263376
95.0,-39.51693199120916
96.0,-13.583904863582832
97.0,132.8964282432789
98.0,142.5741963235111
99.0,24.757934557294746
100.0,8.597626621440899
101.0,44.59533835577264
102.0,45.39549382731808
103.0,69.94645809083214
104.0,317.3068995704591
105.0,446.98670257882804
106.0,478.22038573276785
107.0,740.4991103744597
108.0,792.4769446692143
109.0,765.036601245936
110.0,920.0590333934292
111.0,1062.381369589781
112.0,1179.0232428719912
113.0,1396.1661932382897
114.0,1759.0002316456525
115.0,1976.5763039891376
116.0,2095.235195559126
117.0,2241.037534902224
118.0,2338.7308485650115
119.0,2263.4826079709046
120.0,2251.881295851068
121.0,2473.2804328187667
122.0,2357.7785844996415
123.0,2141.9008456843503
124.0,2106.3121908230196
125.0,2089.7573045048375
126.0,2055.6096661301076
127.0,2052.346097632336
128.0,2111.3562565704397
129.0,2172.937535929874
130.0,2237.4009119929538
131.0,2287.640115913365
132.0,2297.5498917656655
133.0,2354.0502564515214
134.0,2415.6129566427185
135.0,2448.0416518010834
136.0,2538.7744204650962
137.0,2559.3976321786786
138.0,2490.3596863073144
139.0,2453.1759282322455
140.0,2474.0226866607068
141.0,2397.859426808284
142.0,2197.4647495099252
143.0,2069.288021441223
144.0,1919.682093166786
145.0,1784.500634706232
146.0,1736.5517831084308
147.0,1615.5818365233868
148.0,1503.1783464739901
149.0,1447.8421364146784
150.0,1368.689955368836
151.0,1320.9431204818895
152.0,1341.9303085941042
153.0,1413.600075606312
154.0,1470.503827096536
155.0,1422.9567225526366
156.0,1273.7666608336508
157.0,1144.5709749830141
158.0,1184.2833285837214
159.0,1225.0971705569114
160.0,1181.7819850234087
161.0,1245.3158612954956
162.0,1316.5590823983782
163.0,1275.8531612940737
164.0,1155.296847792338
165.0,1161.4271968403957
166.0,1228.1183333719675
167.0,1213.4870360599157
168.0,1121.5067587624744
169.0,1211.1605155632724
170.0,1245.1750204234932
171.0,1098.4624744730486
172.0,1213.8138367894435
173.0,1282.5406822394323
174.0,1195.366642778482
175.0,1173.6377656229367
176.0,1239.7091534910062
177.0,1178.3292387190936
178.0,1052.7002332796073
179.0,1195.9196359410273
180.0,1218.5129510722634
181.0,1124.5741122010984
182.0,1120.8482967743594
183.0,1098.433900097388
184.0,1103.1274034046344
185.0,1079.77125539666
186.0,945.7873528361316
187.0,943.5116357408207
188.0,910.1379756038408
189.0,765.3677427266754
190.0,775.2820781721211
191.0,788.9531775404156
192.0,777.4929894461765
193.0,798.8677980084083
194.0,757.0187430813767
195.0,721.4311512950675
196.0,699.132774814338
197.0,617.2096149592043
198.0,571.4312379545297
199.0,574.0607638848551
200.0,553.9575075645745
201.0,457.3591506234428
202.0,414.7110854414139
203.0,416.7036597746764
204.0,389.03475915170975
205.0,419.0009265187652
206.0,493.69982312594215
207.0,446.19230314521707
208.0,284.8228770172814
209.0,726.4480708506671
210.0,957.2557773746315
211.0,548.6774980718993
212.0,647.8735361972791
213.0,501.82141231172403
214.0,115.55797080381669
215.0,80.1874491500059
216.0,52.70526879561642
217.0,72.94705357505293
218.0,150.4699602319597
219.0,137.6712675912719
220.0,166.28587019418222
221.0,204.0920868065287
222.0,208.213395676949
223.0,265.901327368018
224.0,304.1247651875543
225.0,319.0600385577974
226.0,360.2436159118795
227.0,405.9740637932723
228.0,455.8186892624379
229.0,453.015215257797
230.0,353.79847942729737
231.0,339.22872979823023
232.0,452.3675444399997
233.0,541.8681494001148
234.0,449.55662136672595
235.0,508.25807828286196
236.0,620.6778032664361
237.0,560.9264964829239
238.0,583.377608045107
239.0,659.7908349292493
240.0,720.8161522482142
241.0,792.3555593871662
242.0,921.8696153610597
243.0,1003.0095597332993
244.0,997.1961685216237
245.0,1035.1377455555034
246.0,1159.500808451187
247.0,1183.592171196219
248.0,1056.2952599135263
249.0,1075.0298597982664
250.0,961.8095853004362
251.0,730.8657428527246
252.0,612.1968272575108
253.0,396.9561534800529
254.0,214.34043037289604
255.0,157.0130035595005
256.0,106.08840614516019
257.0,45.76356385011397
258.0,8.00823738846302
259.0,39.8775506184299
260.0,142.4906826334964
261.0,135.3283638124943
262.0,79.194759333317
263.0,117.83219112054363
264.0,139.3934469645598
265.0,101.81142454005942
266.0,48.52293517027159
267.0,34.13266400306945
268.0,30.758703668242457
269.0,94.49085629790245
270.0,154.67067184853903
271.0,40.295849876768315
272.0,-24.236338911589257
273.0,33.2786159399901
274.0,115.52176009869565
275.0,124.98324850614914
276.0,90.24713701852198
277.0,61.705574948160155
278.0,62.33957856100238
279.0,80.0256168640934
280.0,76.77957697110925
281.0,43.9214759620995
282.0,30.641495756330706
283.0,115.07223275724722
284.0,187.7559152186618
285.0,177.64708215770298
286.0,185.30450794725112
287.0,285.01318047582146
288.0,397.95897675014027
289.0,467.59930950948115
290.0,595.5253711258963
291.0,743.2998552904251
292.0,786.8625406576222
293.0,730.5112429393407
294.0,824.5762980301059
295.0,821.0329542364673
296.0,702.2935743025724
297.0,708.1411561275249
298.0,644.893069373769
299.0,600.8385998038848
300.0,666.7182764498885
301.0,705.2115379358324
302.0,566.3743100055484
303.0,466.90048059615555
304.0,538.3105434799131
305.0,523.9328867339365
306.0,531.2135645325653
307.0,559.6229413927019
308.0,537.0836529776258
309.0,551.920344633411
310.0,598.7790486236767
311.0,681.3561247052743
312.0,798.7852892874209
313.0,866.8830989909552
314.0,1028.9137295907829
315.0,1298.8651383315305
316.0,1504.248584925775
317.0,1705.7341292446536
318.0,2035.1037266736816
319.0,2438.727664469063
320.0,2707.992553213884
321.0,3031.4657450321747
322.0,3295.8975492763675
323.0,3353.3822240761906
324.0,3338.7025360789125
325.0,2997.350874082489
326.0,2500.0402991186984
327.0,2148.4259507717397
328.0,1703.1279801453447
329.0,1280.6153695765568
330.0,982.406756631022
331.0,757.6376700936161
332.0,566.7397907037815
333.0,328.0831972466749
334.0,163.34992658341346
335.0,232.3670270120467
336.0,134.55427798015268
337.0,19.503228482324907
338.0,59.37172783474536
339.0,54.11171954341709
340.0,28.498255146088603
341.0,2.336864167680901
342.0,0.05864843497144534
343.0,72.01837862834087
344.0,87.55227588607539
345.0,43.115338154966615
346.0,59.83845184475281
347.0,178.95003528046206
348.0,126.88083241527366
349.0,-12.145330694107857
350.0,22.40942865401836
351.0,32.701569527455284
352.0,32.881042445426154
353.0,46.36880313885128
354.0,28.55293610605393
355.0,18.191625068607436
356.0,17.33572210981118
357.0,28.99435617292031
358.0,69.20377175430197
359.0,102.44483355633295
360.0,74.44918742453822
361.0,58.06868471173678
362.0,173.80763622015735
363.0,117.29017677068235
364.0,33.88448667271245
365.0,138.3670777219698
366.0,219.29788744295377
367.0,116.7224103159483
368.0,74.18659452529172
369.0,233.67930117488132
370.0,197.77318703726533
371.0,187.59064671986553
372.0,249.3747506997435
373.0,230.4139769184531
374.0,231.95220143683835
375.0,382.8181374243837
376.0,497.3532851273222
377.0,407.20405882645986
378.0,546.8129364485376
379.0,622.3613514151106
380.0,566.6522198074341
381.0,711.6833015203558
382.0,879.4480659409566
383.0,952.2841898901428
384.0,1044.1511128990383
385.0,1321.1337742002008
386.0,1567.7570422951183
387.0,1798.509388239638
388.0,2061.7559097140675
389.0,2307.579332100876
390.0,2702.643328268603
391.0,3194.267207614304
392.0,3759.279594920342
393.0,4567.872324672892
394.0,5480.57064786944
395.0,6414.019972206051
396.0,7475.690755535898
397.0,8729.95159404844
398.0,9418.843113623607
399.0,9535.246001158002
400.0,9347.671681227026
401.0,8505.579135335163
402.0,7412.412203729891
403.0,6365.238329666279
404.0,5363.239290119279
405.0,4401.930076589476
406.0,3546.542422258325
407.0,2904.183706428914
408.0,2495.755120601908
409.0,2158.723587294057
410.0,1926.6580068677424
411.0,1769.3584322719182
412.0,1595.6313665655257
413.0,1480.0734128890692
414.0,1395.9144842391634
415.0,1364.1502363307388
416.0,1418.7442263291362
417.0,1396.2838560984712
418.0,1332.6315117312406
419.0,1340.0079938092883
420.0,1415.346784539918
421.0,1361.025767599564
422.0,1278.110883763704
423.0,1222.0491780146876
424.0,1090.9180325100838
425.0,1012.5565807574299
426.0,980.1714571295254
427.0,937.771835710861
428.0,876.9404240480171
429.0,778.4956058386911
430.0,723.114738814093
431.0,705.7333803608195
432.0,674.2776457533106
433.0,965.2511551378717
434.0,1097.8156895803013
435.0,887.1446756353178
436.0,979.5813726418197
437.0,959.6413907144566
438.0,853.9261569170144
439.0,937.1922042138971
440.0,1145.5516910409444
441.0,1179.6486574101696
442.0,1148.5598636806146
443.0,1287.5465662606503
444.0,1500.4030444879247
445.0,1435.8982938556192
446.0,1247.749130119354
447.0,1164.6924876824849
448.0,1010.2497922029173
449.0,899.6760259062727
450.0,862.615522803806
451.0,782.3604244688547
452.0,604.3562321389088
453.0,671.404637781229
454.0,645.3744754903921
455.0,344.62387645777727
456.0,486.7650002159684
457.0,437.4835139348221
458.0,245.49055591776408
459.0,306.25041348630856
460.0,294.84887218306
461.0,213.25723879671494
462.0,197.74432582156902
463.0,266.23146421889277
464.0,244.51971967175484
465.0,142.00036724987595
466.0,108.6650562055468
467.0,194.15546222946472
468.0,191.40386071371827
469.0,55.90097620054487
470.0,23.792312623102507
471.0,156.5570756196016
472.0,48.053177243326715
473.0,16.778829821246177
474.0,74.91693323513151
475.0,36.85747144082409
476.0,72.83506650865372
477.0,119.12916933666843
478.0,164.90524222674438
479.0,234.69434274730207
480.0,240.85686111022403
481.0,181.1305633496988
482.0,154.30634373081796
483.0,197.72210210307213
484.0,175.37792791754518
485.0,126.63933725040273
486.0,168.0141230958111
487.0,281.52808330665204
488.0,272.4271045221074
489.0,330.05667476083414
490.0,334.84652652568565
491.0,200.6509095030019
492.0,312.65805391187087
493.0,346.76359504556564
494.0,288.2003383422956
495.0,319.88079578971804
496.0,318.88551741761404
497.0,325.09738143400006
498.0,354.21319771134176
499.0,359.85992181907915
500.0,322.40419104255085
501.0,352.4448415923334
502.0,413.07599146794695
503.0,422.9054069795223
504.0,435.16130528445166
505.0,484.0181224010536
506.0,535.7011676308693
507.0,561.8476109661922
508.0,596.0067879414781
509.0,632.0314430910153
510.0,676.8263688638314
511.0,718.0880699794127
512.0,716.1198471626768
513.0,726.8918045854703
514.0,749.1849951801136
515.0,783.8235565134212
516.0,883.6099129588208
517.0,1008.7911896727448
518.0,1112.3376775077022
519.0,1181.44059559156
520.0,1238.1104423289469
521.0,1299.580856767661
522.0,1327.5982814904858
523.0,1324.256908563578
524.0,1351.0654517978594
525.0,1358.0228408446037
526.0,1268.3100425169753
527.0,1217.7522322824918
528.0,1400.1289142121555
529.0,1445.4660007008406
530.0,1437.0129184977498
531.0,1461.3319659705069
532.0,1381.627887256457
533.0,1345.148841688132
534.0,1472.7306794911935
535.0,1572.5041036116245
536.0,1413.6144129367153
537.0,1367.3637381183678
538.0,1328.4142184695384
539.0,1219.9159405782623
540.0,1155.9745850708887
541.0,1061.158755514269
542.0,1038.555767191168
543.0,1021.4721356078169
544.0,877.1048723141212
545.0,795.7196047201721
546.0,679.3500861013221
547.0,559.1543848148085
548.0,531.9179055624613
549.0,444.52375656874443
550.0,410.1102699462891
551.0,452.8160665649171
552.0,462.0053940981064
553.0,383.2634357738346
554.0,300.12916997953977
555.0,325.9765040038065
556.0,404.52392185410235
557.0,326.2065513143891
558.0,332.0748177590555
559.0,360.3891189385664
560.0,283.4370511575376
561.0,271.6568338046979
562.0,373.5803467581211
563.0,355.61120545927776
564.0,229.2430615719129
565.0,336.8652903403663
566.0,401.01865824612776
567.0,366.9221798016834
568.0,382.22788348420016
569.0,519.0167656466901
570.0,608.0103653402854
571.0,576.9761465681123
572.0,500.87548551848687
573.0,484.9847363738044
574.0,490.6432680706326
575.0,478.7212726313124
576.0,477.2697227939941
577.0,495.7074131242138
578.0,419.4247473878286
579.0,366.75001321166684
580.0,464.4803807314831
581.0,551.715922824847
582.0,258.9995881107428
583.0,207.57852269024826
584.0,286.494231674127
585.0,149.8914089251156
586.0,237.08802688225606
587.0,250.9771785726366
588.0,188.56661967985124
589.0,197.88295404103985
590.0,174.85283741394585
591.0,146.35282928008988
592.0,76.45672231717974
593.0,4.1829606830516575
594.0,40.156347417544005
595.0,19.68175575373395
596.0,24.99430289427253
597.0,69.5285435198047
598.0,29.492276943044406
599.0,44.96844615196914
600.0,71.07632336924074
601.0,55.47612893610858
602.0,42.629610173953175
603.0,72.82722086414549
604.0,75.36363446073209
605.0,43.616663820500506
606.0,18.9851313727778
607.0,-6.541362535047684
608.0,62.5892467001189
609.0,129.02824359743136
610.0,91.24229397814692
611.0,69.56235359025034
612.0,53.24876139722003
613.0,30.910004767160093
614.0,59.15899157998837
615.0,213.53029182443044
616.0,424.21257840001584
617.0,531.2890769848898
618.0,436.2143538035904
619.0,240.04814474215286
620.0,216.47090712560026
621.0,150.00592065606375
622.0,78.96639849701295
623.0,187.64418998356402
624.0,94.26137390159865
625.0,121.71625011801996
626.0,215.80898861825628
627.0,128.8705734081786
628.0,138.0979877847274
629.0,98.85665174546928
630.0,2.172060994471466
631.0,16.16683725475813
632.0,174.35151813883928
633.0,137.49152040567296
634.0,40.82037335303099
635.0,70.19399575979455
636.0,106.85760263896977
637.0,120.42729354019811
638.0,142.2912318050829
639.0,167.79323271837444
640.0,166.30457377261018
641.0,176.57161273720052
642.0,216.5776579872213
643.0,240.9863903154915
644.0,230.6856409290155
645.0,266.9044449300946
646.0,294.95296402861237
647.0,353.9268591552619
648.0,414.25679549082696
649.0,329.13918590074377
650.0,378.2933590920509
651.0,349.4272569439384
652.0,293.72440390196266
653.0,572.697732430858
654.0,491.98984385740124
655.0,484.13302149737274
656.0,597.9292036417047
657.0,413.10971084012283
658.0,523.1356697684446
659.0,736.1728024065667
660.0,822.5317715335627
661.0,836.0868494706074
662.0,887.4152786164188
663.0,997.6331102661319
664.0,1145.142059566634
665.0,1255.0955160133049
666.0,1302.3850977991451
667.0,1559.3047854966524
668.0,1793.1839095802507
669.0,1983.737699115955
670.0,2382.530219621174
671.0,2600.7008107212973
672.0,2921.900984700042
673.0,3518.1061548473817
674.0,4189.977321799106
675.0,4832.308390064592
676.0,5693.280979610685
677.0,7058.787053839589
678.0,8840.849890602132
679.0,10770.585420507448
680.0,13586.91189546456
681.0,16890.908323100553
682.0,20652.50566320807
683.0,25428.2881059241
684.0,29726.08420553889
685.0,32294.660618240494
686.0,32948.92194576369
687.0,31714.5850604043
688.0,28014.413187963706
689.0,23779.12321451607
690.0,19920.07590731935
691.0,16253.34369505154
692.0,13000.205704763446
693.0,10368.404504675478
694.0,8780.699229636537
695.0,7737.722035982698
696.0,6274.992929159644
697.0,5412.934127588818
698.0,4727.73996017816
699.0,4090.97075061453
700.0,3811.6645339625766
701.0,3283.049770961131
702.0,2966.9188229118386
703.0,2709.6996197924204
704.0,2275.426540384551
705.0,2186.1925987504555
706.0,2197.784577555922
707.0,2040.068732124443
708.0,1741.0862278552704
709.0,1524.4144785264023
710.0,1460.7245154668492
711.0,1416.0431750058563
712.0,1331.6966951099535
713.0,1230.6127788918627
714.0,1095.410074637951
715.0,1116.6479427068898
716.0,1054.906684432867
717.0,819.6637009196616
718.0,835.6723132484475
719.0,967.0806752264424
720.0,986.1702328965574
721.0,880.1984903013874
722.0,807.6562665614078
723.0,805.9479549438747
724.0,766.866950226208
725.0,720.8290071707092
726.0,750.7507244301601
727.0,784.364902215361
728.0,782.6674096966274
729.0,739.3962996147686
730.0,700.6568713052001
731.0,715.2319971748441
732.0,704.7261279143552
733.0,637.6423439809644
734.0,519.2620188396928
735.0,454.10507386241926
736.0,600.805221271218
737.0,552.6762194182553
738.0,469.9365294402079
739.0,575.9271443730896
740.0,562.0710186640117
741.0,491.11381083819185
742.0,476.94544596397657
743.0,510.70019862350387
744.0,525.0269982544457
745.0,554.5398337168396
746.0,548.8304320829684
747.0,480.1466230024676
748.0,478.8874754111951
749.0,665.4003304883984
750.0,543.6641611967211
751.0,496.19969250217997
752.0,639.014719012428
753.0,514.6431796077397
754.0,582.986695368542
755.0,656.0505707727607
756.0,600.424823541314
757.0,586.0768710147822
758.0,676.2560405450246
759.0,600.0450084453629
760.0,531.9287119180517
761.0,574.775880332618
762.0,544.8274202764211
763.0,718.8327250817509
764.0,662.599305090542
765.0,412.968805423669
766.0,428.8047227748539
767.0,546.5393556241324
768.0,459.7546465088916
769.0,380.243141749676
770.0,450.8804704163591
771.0,391.0244657018009
772.0,303.2523035467069
773.0,380.489990464556
774.0,438.52004220055915
775.0,297.16579419694864
776.0,355.196700308941
777.0,394.1896256871588
778.0,351.28236507115685
779.0,296.9451262951164
780.0,233.62389803743275
781.0,329.40250013294474
782.0,337.9775565851289
783.0,204.62479991478816
784.0,178.8534762426981
785.0,291.4572183218662
786.0,265.90297416994656
787.0,160.74018607495404
788.0,148.05496899352954
789.0,166.12668126824053
790.0,145.79386259727602
791.0,130.53344430165316
792.0,192.88733546117226
793.0,246.3054355145195
794.0,74.94460647500148
795.0,76.0235308199096
796.0,135.99372472350979
797.0,118.85915840288864
798.0,245.78914660273708
799.0,172.7830465523
800.0,90.34352707768909
801.0,176.13796963078428
802.0,241.55205344699712
803.0,73.22992120302388
804.0,74.3231182943196
805.0,106.49280437722187
806.0,49.28292549199388
807.0,146.4256572893366
808.0,82.71781273406052
809.0,31.703626782025168
810.0,41.159411863770316
811.0,18.02052082954161
812.0,95.61970190546799
813.0,55.777444078954204
814.0,84.50151451719937
815.0,168.29535290503935
816.0,25.415097543594694
817.0,64.84943758036086
818.0,53.82144451737544
819.0,27.651000146863293
820.0,122.66406013463349
821.0,48.60199461971947
822.0,-1.8133223177171907
823.0,75.22886499407231
824.0,124.6838730281902
825.0,24.69740045514854
826.0,20.503490528356924
827.0,19.362890648472344
828.0,13.606676742664098
829.0,52.436568477464284
830.0,65.70310948865512
831.0,70.31457347682023
832.0,107.016531775059
833.0,112.55127510848851
834.0,32.296646846794026
835.0,3.70025835307466
836.0,36.74386116307989
837.0,47.947975535880616
838.0,36.414173248250485
839.0,77.72021494165017
840.0,86.46375302037086
841.0,129.46494404442066
842.0,146.82033965615975
843.0,58.28183703787134
844.0,5.203986373910463
845.0,18.573425480226092
846.0,20.875305120596646
847.0,46.03346682006833
848.0,159.84880521275298
849.0,171.2634758184187
850.0,130.9586096198814
851.0,100.36227022953547
852.0,99.14919767384623
853.0,118.69863918885196
854.0,37.40460536731141
855.0,23.8340589169247
856.0,100.01281622598881
857.0,129.85936223612575
858.0,143.13608707521655
859.0,88.28729195703082
860.0,52.83493894226535
861.0,62.09830881604602
862.0,48.69803426412013
863.0,117.866791338983
864.0,110.2189879812434
865.0,46.61833765995448
866.0,36.472775372448204
867.0,26.010826705017713
868.0,21.14641522447614
869.0,16.55261055484857
870.0,29.52038923505395
871.0,63.95610355851564
872.0,67.8235954823815
873.0,104.30040418730121
874.0,94.40900070759892
875.0,28.502771534269478
876.0,41.94609944762675
877.0,110.23598489783207
878.0,106.65498467977594
879.0,77.57022991270752
880.0,99.29600354604617
881.0,89.20068476259867
882.0,26.582547940070157
883.0,40.925111796277
884.0,69.28478083979637
885.0,19.04181385558081
886.0,71.07537256147863
887.0,72.00870280136235
888.0,111.25904964366232
889.0,147.92674096115522
890.0,11.919872121660775
891.0,4.197529399895092
892.0,178.4182841395711
893.0,223.68016827766272
894.0,136.02383325263165
895.0,245.99250665803146
896.0,100.85840082544804
897.0,61.89578116450063
898.0,255.5025673263717
899.0,328.53430573964556
900.0,164.51724280821537
901.0,163.2881874368305
902.0,247.609235870061
903.0,318.30072304401153
904.0,400.8701431168465
905.0,320.1096095519037
906.0,300.5164433756207
907.0,466.7771939937464
908.0,587.9838801294723
909.0,478.0812778433386
910.0,546.7581144618752
911.0,466.4993138088042
912.0,433.53562293944503
913.0,595.3954384074857
914.0,529.7896880056594
915.0,627.8246158164916
916.0,659.1300494686463
917.0,506.6475559457491
918.0,397.48783136087735
919.0,457.1728299315464
920.0,597.7841840566347
921.0,606.5358484360836
922.0,472.75278237697194
923.0,408.9106032665202
924.0,515.1481660724693
925.0,547.3978035285629
926.0,438.80322041073674
927.0,393.57553276558883
928.0,501.01470471170575
929.0,424.87381203826806
930.0,449.04862441886297
931.0,481.20725719159293
932.0,396.6906958402054
933.0,385.2278729240367
934.0,293.37987671869854
935.0,397.5177127505932
936.0,399.12139808685475
937.0,206.68723010078585
938.0,418.4500740708798
939.0,329.93755668056644
940.0,246.98921923505418
941.0,309.0408908491553
942.0,300.4747736798867
943.0,369.465287421929
944.0,371.7484505348847
945.0,347.20347419726465
946.0,348.78056800106344
947.0,327.76789967823726
948.0,279.59528690877227
949.0,279.394819860457
950.0,234.1332952441056
951.0,208.18341803043026
952.0,316.31510327559283
953.0,265.8793223339365
954.0,157.1220170129776
955.0,172.65837669775027
956.0,251.85681137474526
957.0,220.40648201371295
958.0,207.85984122612504
959.0,226.48888798298736
960.0,295.76360580614045
961.0,298.1004532403769
962.0,129.779107177192
963.0,216.05757717568022
964.0,293.86250762028277
965.0,250.54197227253897
966.0,272.0110487787415
967.0,366.07845803755555
968.0,237.99720316711858
969.0,167.19361941711048
970.0,215.3881883177852
971.0,226.3448715819104
972.0,270.6126493004319
973.0,335.7733471427385
974.0,376.14179984439164
975.0,359.1460074095237
976.0,369.69942837010603
977.0,500.3467818203824
978.0,396.9283898922297
979.0,435.4362860474126
980.0,556.2327780534886
981.0,393.91127130394096
982.0,354.8249111871205
983.0,610.1039535609431
984.0,643.2643232435888
985.0,568.1724033966759
986.0,830.3969999999999
987.0,915.64805935817
988.0,859.6312740599403
989.0,952.8278882567257
990.0,1171.3675531087592
991.0,1255.7545445719657
992.0,1275.367376729177
993.0,1525.1274212403912
994.0,1766.505890574314
995.0,1910.9974398963393
996.0,2157.224108838445
997.0,2360.934719627164
998.0,2753.0552574123535
999.0,2856.422162519554
1000.0,2843.4181220844303
1001.0,3301.4909676686316
1002.0,3393.1594085641786
1003.0,3670.6256954106666
1004.0,4045.0715542890516
1005.0,4215.005267653737
1006.0,4363.486185978473
1007.0,4575.924685783734
1008.0,4687.309981572698
1009.0,4737.860349707042
1010.0,4827.442611516018
1011.0,4918.036707415856
1012.0,4938.597120694534
1013.0,4820.750420067078
1014.0,4573.329440658573
1015.0,4230.493673770706
1016.0,3927.469803323839
1017.0,3922.4726171500897
1018.0,3773.5721369253765
1019.0,3395.7224784930163
1020.0,3146.25369324305
1021.0,3205.3724617773973
1022.0,3176.5430556121364
1023.0,2908.0993432326813
1024.0,2688.2432743035297
1025.0,2505.3706755085564
1026.0,2178.896622672102
1027.0,2222.780519518594
1028.0,2132.9732983183885
1029.0,2083.981254779617
1030.0,2231.592965447846
1031.0,2194.9052559216084
1032.0,2020.2987290126114
1033.0,1802.511668375458
1034.0,1857.5937897127296
1035.0,2076.133560944878
1036.0,2043.8558292560233
1037.0,1988.0991713882588
1038.0,1942.7135449391712
1039.0,2022.8763857553622
1040.0,2164.2775212637803
1041.0,2174.261613004684
1042.0,2198.1852051280384
1043.0,2314.6799834190574
1044.0,2532.4793762739637
1045.0,2733.475787324803
1046.0,2815.6750017790378
1047.0,2932.815519896724
1048.0,3223.8951069977766
1049.0,3542.3092324028653
1050.0,3780.795667875254
1051.0,4043.2643831361497
1052.0,4432.667967254376
1053.0,4867.829580196762
1054.0,5215.22669956765
1055.0,5771.025309279518
1056.0,6609.64770593632
1057.0,7063.1850797960815
1058.0,7764.060162939271
1059.0,8544.108106871641
1060.0,9048.870391236542
1061.0,9588.778292785822
1062.0,10625.699799222763
1063.0,11343.196619119191
1064.0,11870.303280486822
1065.0,12388.24357872772
1066.0,12759.612858729177
1067.0,13037.120025637741
1068.0,13302.39456478395
1069.0,13250.400330191002
1070.0,13021.595801852265
1071.0,12924.97779785555
1072.0,12719.647481724433
1073.0,12057.836745244145
1074.0,11604.500451455417
1075.0,11301.444656276874
1076.0,10702.990921074734
1077.0,9961.771907739458
1078.0,9313.454516040145
1079.0,8811.433466816514
1080.0,8250.108658234887
1081.0,7652.763582996278
1082.0,7196.080431550555
1083.0,6609.671679286032
1084.0,6429.301823215046
1085.0,6171.089028250934
1086.0,5661.688898597051
1087.0,5386.838985153412
1088.0,4912.1235972569575
1089.0,4520.124425526391
1090.0,4354.502396654182
1091.0,4138.393390699114
1092.0,3725.225460140674
1093.0,3486.0795121842602
1094.0,3333.656114650161
1095.0,3126.374492435735
1096.0,2960.9049754723237
1097.0,2893.030258574696
1098.0,2751.138233278376
1099.0,2743.522816353363
1100.0,2814.679116371109
1101.0,2701.507851534917
1102.0,2526.4679063540116
1103.0,2615.1156754863855
1104.0,2376.115279581987
1105.0,2365.50721627058
1106.0,2384.7469780377887
1107.0,2257.7923623129227
1108.0,2402.3830213450674
1109.0,2266.6309903109404
1110.0,2213.61099833444
1111.0,2308.425364442837
1112.0,2265.5341967402446
1113.0,2128.890552480154
1114.0,2295.0076648646454
1115.0,2252.961914750929
1116.0,2139.82123148437
1117.0,2080.906063966243
1118.0,1980.5506769765345
1119.0,2075.902722633663
1120.0,2339.588905020673
1121.0,2378.8714814667524
1122.0,2283.401658856252
1123.0,2272.7377347365164
1124.0,2142.803231758011
1125.0,2012.1008120085899
1126.0,1954.1249373870892
1127.0,1946.5167993780165
1128.0,1914.757416835946
1129.0,1858.312470794195
1130.0,1930.3992049765084
1131.0,2028.5494481419687
1132.0,2083.180224649952
1133.0,2005.2385777865861
1134.0,1836.0981830451549
1135.0,1931.9114066629295
1136.0,2168.4396705607605
1137.0,1986.3323071270474
1138.0,1846.3243102259592
1139.0,2138.81183768572
1140.0,2005.4415013550483
1141.0,1982.353738670096
1142.0,1993.3831689581577
1143.0,1944.5356860356362
1144.0,1919.347437223441
1145.0,1920.9291340806947
1146.0,1954.9716493215935
1147.0,1864.6536320005962
1148.0,1799.5645593536292
1149.0,1760.771157735185
1150.0,1599.8391180395315
1151.0,1544.5833430700754
1152.0,1456.8167954705225
1153.0,1435.2450914208457
1154.0,1341.330338948645
1155.0,1146.7386076288153
1156.0,1229.9159741474452
1157.0,1094.8833809946777
1158.0,975.0553409693157
1159.0,943.5420562578687
1160.0,854.2624618062987
1161.0,737.6708821847732
1162.0,614.8429398087051
1163.0,605.752189099383
1164.0,550.6935123077651
1165.0,505.666576406497
1166.0,580.0944355022792
1167.0,447.0825226419206
1168.0,475.74622670130077
1169.0,572.8576136604148
1170.0,537.061000565538
1171.0,421.46551669808633
1172.0,400.39693199054636
1173.0,501.59033805975025
1174.0,481.27875804855785
1175.0,470.3713260439526
1176.0,543.0875966304018
1177.0,509.1776523939757
1178.0,487.7635938953086
1179.0,580.9327645300599
1180.0,559.6645825074111
1181.0,469.2374143037587
1182.0,488.756937493623
1183.0,486.32878625198094
1184.0,586.9318895367206
1185.0,596.3259603916093
1186.0,506.9195831621941
1187.0,511.7095108077899
1188.0,585.2600043404248
1189.0,464.3287663421463
1190.0,506.71525883806646
1191.0,576.6105725965544
1192.0,587.1911203628446
1193.0,612.5909143456535
1194.0,466.8951257721023
1195.0,402.06590078963325
1196.0,464.42639124741044
1197.0,539.5206416535498
1198.0,575.2707024023673
1199.0,592.0397287059396
1200.0,554.1371726903076
1201.0,606.9583180752552
1202.0,692.9292983632442
1203.0,720.0144219186321
1204.0,731.5916414179919
1205.0,743.1336578730914
1206.0,601.9303378044427
1207.0,598.5973796546041
1208.0,641.0704842134662
1209.0,548.333286558432
1210.0,505.4874780999343
1211.0,513.4226797747159
1212.0,504.49762664561126
1213.0,453.3520052384526
1214.0,424.68238965018907
1215.0,462.01887363163917
1216.0,490.8535637592855
1217.0,494.3673286760091
1218.0,482.696386887452
1219.0,484.8693591257727
1220.0,451.2546493708432
1221.0,374.986193333348
1222.0,464.2912310636593
1223.0,448.8686233082
1224.0,394.66147649350484
1225.0,506.01347780992654
1226.0,654.1816841955686
1227.0,531.0683289130117
1228.0,387.36594607154456
1229.0,489.73689601088546
1230.0,558.3203531763749
1231.0,470.35743413438615
1232.0,455.31757373605336
1233.0,375.36730973198723
1234.0,386.81760250021006
1235.0,337.90853853309585
1236.0,277.00466508406714
1237.0,319.34334121916504
1238.0,276.1237892558561
1239.0,184.68504770245193
1240.0,274.74387043231246
1241.0,381.12634273365217
1242.0,314.5106438347269
1243.0,169.39111901527085
1244.0,90.80104937776501
1245.0,142.69605818784373
1246.0,123.65243583818982
1247.0,154.66749464519162
1248.0,252.90587184391262
1249.0,190.23900971594068
1250.0,248.8422409642528
1251.0,231.544994126735
1252.0,85.38730294769867
1253.0,38.262145236541656
1254.0,109.61367219588419
1255.0,21.175703014195452
1256.0,11.599863154430608
1257.0,149.48766458870458
1258.0,171.5838411632559
1259.0,83.10901957156167
1260.0,104.12815653989345
1261.0,90.42506884622108
1262.0,99.96623436059237
1263.0,104.73605054810903
1264.0,64.25114377266422
1265.0,48.87287586666695
1266.0,91.75792930825462
1267.0,33.92040794179516
1268.0,89.6995413480087
1269.0,66.70028565825685
1270.0,83.15461394624279
1271.0,190.22730017800856
1272.0,16.107628553123014
1273.0,102.41488691598228
1274.0,70.24826408124996
1275.0,-0.7311175882061235
1276.0,29.69992940855194
1277.0,43.405484267186566
1278.0,113.67425865646176
1279.0,46.844022967693306
1280.0,-10.000909412400862
1281.0,44.82298561181088
1282.0,103.83197829898758
1283.0,56.62580075527813
1284.0,7.979403688464988
1285.0,167.35286518726016
1286.0,116.14541772954175
1287.0,-10.056989034664067
1288.0,77.88362552273865
1289.0,118.06201794972633
1290.0,107.37151615009316
1291.0,31.112571216986318
1292.0,-8.155218339976166
1293.0,29.58897594761463
1294.0,69.28568970104156
1295.0,73.06185574709377
1296.0,87.70625985598907
1297.0,97.6535041747315
1298.0,96.13012629572083
1299.0,99.06412642561835
1300.0,93.8386898952507
1301.0,62.2087109148382
1302.0,84.36305886965037
1303.0,51.07295591809401
1304.0,126.71515151128243
1305.0,181.1960626669444
1306.0,4.477264820208598
1307.0,54.777937606480194
1308.0,154.0540197736597
1309.0,110.82478624462902
1310.0,211.90529828685575
1311.0,292.49729710828734
1312.0,3.837927672084645
1313.0,26.269244996216266
1314.0,-12.908990365791546
1315.0,171.4297084535606
1316.0,271.5561043275569
1317.0,102.01560551227217
1318.0,147.83399999999997
1319.0,105.66867579036581
1320.0,103.34000779325186
1321.0,228.28429590506235
1322.0,198.29227887134036
1323.0,91.033883339176
1324.0,276.3021238371556
1325.0,251.73060793949887
1326.0,418.33852528272075
1327.0,333.1833880670502
1328.0,142.40666267586727
1329.0,233.79331225392832
1330.0,221.0938833271748
1331.0,270.14561746290104
1332.0,370.7768755385603
1333.0,324.08475234468887
1334.0,260.8610944016064
1335.0,321.5443134400368
1336.0,293.0573307619359
1337.0,264.8082818932281
1338.0,261.8774703385411
1339.0,258.48073861040683
1340.0,220.01053070914034
1341.0,245.93421423976056
1342.0,408.1350292464389
1343.0,334.1722567328144
1344.0,317.65215085211236
1345.0,397.3281256520785
1346.0,373.242273139421
1347.0,317.7817361205808
1348.0,461.85766780049335
1349.0,498.1899723115027
1350.0,311.9776553253703
1351.0,364.2906564114362
1352.0,474.5419937442368
1353.0,343.8889012822322
1354.0,450.84421696920674
1355.0,439.37325438732165
1356.0,211.17103068118686
1357.0,307.5088325473133
1358.0,521.9267618736819
1359.0,389.8109189158441
1360.0,387.35127872926347
1361.0,573.0008556930522
1362.0,503.4637330185619
1363.0,415.943382822729
1364.0,413.74181865587326
1365.0,377.9795439878111
1366.0,462.6728234787532
1367.0,437.14815656301846
1368.0,406.080966229544
1369.0,409.39246617246124
1370.0,354.27559983205674
1371.0,269.4524687104536
1372.0,281.7948295496495
1373.0,265.4502350375651
1374.0,276.5651491781042
1375.0,336.44558579010805
1376.0,267.5762531639177
1377.0,152.7869473893732
1378.0,249.74543543045664
1379.0,164.3399146153963
1380.0,257.1286713614044
1381.0,283.98759429513734
1382.0,209.6838128697633
1383.0,281.6822145038223
1384.0,376.5989474616465
1385.0,326.8840007990797
1386.0,377.8123110072448
1387.0,316.81858737386995
1388.0,272.2260543024338
1389.0,355.55895815620346
1390.0,290.8522746691537
1391.0,189.15996494076177
1392.0,48.0738698580512
1393.0,72.43822256171583
1394.0,224.44772831932053
1395.0,208.80768740635654
1396.0,80.28815513760811
1397.0,243.648285142436
1398.0,145.26588161960623
1399.0,96.69363722135631
1400.0,110.58291856824809
1401.0,55.164734775622435
1402.0,44.93854597055103
1403.0,26.456549658027974
1404.0,8.106499569058457
1405.0,43.821094112663275
1406.0,75.9454102442016
1407.0,40.59224361615474
1408.0,10.333518883125228
1409.0,95.35873488227878
1410.0,175.44209715953372
1411.0,49.38014033402608
1412.0,31.112340298853976
1413.0,129.0960462314446
1414.0,107.80851445130558
1415.0,88.00642366181225
1416.0,116.44076706366124
1417.0,168.25392809773888
1418.0,190.07352514677999
1419.0,172.55932056239484
1420.0,106.86894248337497
1421.0,34.85895178012017
1422.0,86.15891002649029
1423.0,35.41260993529861
1424.0,-36.95620847637167
1425.0,0.0
1426.0,0.0
1427.0,0.0
1428.0,0.0
1429.0,0.0
1430.0,0.0
1431.0,0.0
1432.0,0.0
1433.0,0.0
1434.0,0.0
1435.0,0.0
1436.0,0.0
1437.0,0.0
1438.0,0.0
1439.0,0.0
1440.0,0.0
1441.0,0.0
1442.0,0.0
1443.0,0.0
1444.0,0.0
1445.0,0.0
1446.0,0.0
1447.0,0.0
1448.0,0.0
1449.0,0.0
1450.0,0.0
1451.0,0.0
1452.0,0.0
1453.0,0.0
1454.0,0.0
1455.0,0.0
1456.0,0.0
1457.0,0.0
1458.0,0.0
1459.0,0.0
1460.0,0.0
1461.0,0.0
1462.0,0.0
1463.0,0.0
1464.0,0.0
1465.0,0.0
1466.0,0.0
1467.0,0.0
1468.0,0.0
1469.0,0.0
1470.0,0.0
1471.0,0.0
1472.0,0.0
1473.0,0.0
1474.0,0.0
1475.0,0.0
1476.0,0.0
1477.0,0.0
1478.0,0.0
1479.0,0.0
1480.0,0.0
1481.0,0.0
1482.0,0.0
1483.0,0.0
1484.0,0.0
1485.0,0.0
1486.0,0.0
1487.0,0.0
1488.0,0.0
1489.0,0.0
1490.0,0.0
1491.0,0.0
1492.0,0.0
1493.0,0.0
1494.0,0.0
1495.0,0.0
1496.0,0.0
1497.0,0.0
1498.0,0.0
1499.0,0.0
1500.0,0.0
1501.0,0.0
1502.0,0.0
1503.0,0.0
1504.0,0.0
1505.0,0.0
1506.0,0.0
1507.0,0.0
1508.0,0.0
1509.0,0.0
1510.0,0.0
1511.0,0.0
1512.0,0.0
1513.0,0.0
1514.0,0.0
1515.0,0.0
1516.0,0.0
1517.0,0.0
1518.0,0.0
1519.0,0.0
1520.0,0.0
1521.0,0.0
1522.0,0.0
1523.0,0.0
1524.0,0.0
1525.0,0.0
1526.0,0.0
1527.0,0.0
1528.0,0.0
1529.0,0.0
1530.0,0.0
1531.0,0.0
1532.0,0.0
1533.0,0.0
1534.0,0.0
1535.0,0.0
1536.0,0.0
1537.0,0.0
1538.0,0.0
1539.0,0.0
1540.0,0.0
1541.0,0.0
1542.0,0.0
1543.0,0.0
1544.0,0.0
1545.0,0.0
1546.0,0.0
1547.0,0.0
1548.0,0.0
1549.0,0.0
1550.0,0.0
1551.0,0.0
1552.0,0.0
1553.0,0.0
1554.0,0.0
1555.0,0.0
1556.0,0.0
1557.0,0.0
1558.0,0.0
1559.0,0.0
1560.0,0.0
1561.0,0.0
1562.0,0.0
1563.0,0.0
1564.0,0.0
1565.0,0.0
1566.0,0.0
1567.0,0.0
1568.0,0.0
1569.0,0.0
1570.0,0.0
1571.0,0.0
1572.0,0.0
1573.0,0.0
1574.0,0.0
1575.0,0.0
1576.0,0.0
1577.0,0.0
1578.0,0.0
1579.0,0.0
1580.0,0.0
1581.0,0.0
1582.0,0.0
1583.0,0.0
1584.0,0.0
1585.0,0.0
1586.0,0.0
1587.0,0.0
1588.0,0.0
1589.0,0.0
1590.0,0.0
1591.0,0.0
1592.0,0.0
1593.0,0.0
1594.0,0.0
1595.0,0.0
1596.0,0.0
1597.0,0.0
1598.0,0.0
1599.0,0.0
