0.0,0.0
1.0,0.0
2.0,0.0
3.0,0.0
4.0,0.0
5.0,0.0
6.0,0.0
7.0,0.0
8.0,0.0
9.0,0.0
10.0,0.0
11.0,0.0
12.0,0.0
13.0,0.0
14.0,0.0
15.0,0.0
16.0,0.0
17.0,0.0
18.0,0.0
19.0,0.0
20.0,0.0
21.0,0.0
22.0,0.0
23.0,0.0
24.0,0.0
25.0,0.0
26.0,0.0
27.0,0.0
28.0,0.0
29.0,0.0
30.0,0.0
31.0,0.0
32.0,0.0
33.0,0.0
34.0,0.0
35.0,0.0
36.0,0.0
37.0,0.0
38.0,0.0
39.0,0.0
40.0,0.0
41.0,0.0
42.0,0.0
43.0,0.0
44.0,0.0
45.0,0.0
46.0,0.0
47.0,0.0
48.0,0.0
49.0,0.0
50.0,0.0
51.0,0.0
52.0,0.0
53.0,0.0
54.0,0.0
55.0,0.0
56.0,0.0
57.0,0.0
58.0,0.0
59.0,0.0
60.0,0.0
61.0,0.0
62.0,0.0
63.0,0.0
64.0,0.0
65.0,0.0
66.0,0.0
67.0,0.0
68.0,0.0
69.0,0.0
70.0,0.0
71.0,0.0
72.0,0.0
73.0,0.0
74.0,0.0
75.0,0.0
76.0,0.0
77.0,0.0
78.0,0.0
79.0,0.0
80.0,0.0
81.0,0.0
82.0,0.0
83.0,0.0
84.0,0.0
85.0,0.0
86.0,0.0
87.0,0.0
88.0,0.0
89.0,0.0
90.0,0.0
91.0,0.0
92.0,0.0
93.0,0.0
94.0,0.0
95.0,0.0
96.0,0.0
97.0,0.0
98.0,0.0
99.0,0.0
100.0,0.0
101.0,0.0
102.0,0.0
103.0,0.0
104.0,0.0
105.0,0.0
106.0,0.0
107.0,0.0
108.0,0.0
109.0,0.0
110.0,0.0
111.0,0.0
112.0,0.0
113.0,0.0
114.0,0.0
115.0,0.0
116.0,0.0
117.0,3.439065189734663
118.0,-19.825219034462226
119.0,37.40110597935878
120.0,52.27673357910042
121.0,1.589238775777945
122.0,50.884393098110046
123.0,90.8838334831217
124.0,41.29350615451749
125.0,11.47440238096056
126.0,23.66148145778551
127.0,31.926710937610128
128.0,8.060126025958635
129.0,11.386687729554794
130.0,44.47112421816359
131.0,85.19600245733142
132.0,108.99185341270842
133.0,87.78246015887166
134.0,93.55378079328172
135.0,140.08134896015662
136.0,101.8572296288451
137.0,144.46273010188196
138.0,255.63249807851517
139.0,278.65283516467684
140.0,327.5516006912189
141.0,360.8115361541313
142.0,352.8830080490285
143.0,398.13913496648837
144.0,407.0167856915021
145.0,376.0852670132248
146.0,367.125066916
147.0,352.1694647990702
148.0,295.338876379198
149.0,223.4512118332088
150.0,191.97210454370196
151.0,128.28432280988415
152.0,74.72977947024104
153.0,92.78786580528897
154.0,118.21001113192898
155.0,86.29326259672773
156.0,39.51438129408455
157.0,51.26834807578389
158.0,35.61926473211003
159.0,43.363797726541236
160.0,76.25538146924082
161.0,19.69543346533759
162.0,33.39875265056802
163.0,85.14736238523665
164.0,53.182215898492004
165.0,39.653702109941605
166.0,52.910122356501724
167.0,59.39564709530078
168.0,49.25560374335242
169.0,54.67375385518259
170.0,69.82230205511267
171.0,72.5082924320794
172.0,67.58387167130094
173.0,93.60222995490625
174.0,116.61183904996552
175.0,82.94635522698599
176.0,63.13720521873077
177.0,98.49719920764129
178.0,148.26545228554508
179.0,141.47805199688926
180.0,163.47713831542245
181.0,201.4608192725817
182.0,207.99996522063645
183.0,228.07599412133973
184.0,227.2889738156404
185.0,237.20976249212688
186.0,301.07009036598436
187.0,260.91559776250455
188.0,186.04389161340157
189.0,167.76215875322453
190.0,148.32945381301286
191.0,120.52465758248607
192.0,128.28997187358203
193.0,174.9208678094346
194.0,158.4633302851048
195.0,147.13382518689193
196.0,183.38232223007287
197.0,211.22515748969897
198.0,194.95674883265806
199.0,195.3536219256168
200.0,225.1295846186096
201.0,195.09730291110392
202.0,201.1137493988569
203.0,229.1047696838787
204.0,208.69804268046565
205.0,207.8667694413256
206.0,216.45308668305051
207.0,219.61088200017886
208.0,222.95850059034683
209.0,188.98960023753548
210.0,153.17443741702883
211.0,136.0717526866769
212.0,89.1526754935436
213.0,65.46928735481227
214.0,74.02795159778724
215.0,69.30957093822678
216.0,30.52063951135832
217.0,30.140792683649206
218.0,65.50485760151606
219.0,57.421642993158464
220.0,54.04286646159525
221.0,42.89551100421536
222.0,12.556407663444926
223.0,9.513119096500509
224.0,13.023213351593819
225.0,14.524334118715872
226.0,27.097710139169543
227.0,52.97798768573363
228.0,69.04386839183299
229.0,81.7712230797389
230.0,101.62829148451196
231.0,54.3560297972103
232.0,41.914433284533985
233.0,91.0546237439508
234.0,50.535130735736786
235.0,53.94959942050566
236.0,72.55546104506386
237.0,42.55298470704716
238.0,110.17295462135274
239.0,111.07765563244546
240.0,47.46728590009446
241.0,85.22033606565095
242.0,101.9876848826847
243.0,102.4994679442593
244.0,112.95917655641856
245.0,94.12425773842686
246.0,77.23846135952638
247.0,85.14018422621115
248.0,93.66172148286711
249.0,58.69303917178323
250.0,84.5411905377374
251.0,135.83135151325794
252.0,112.89507482605642
253.0,127.65088133346963
254.0,159.6018415494656
255.0,169.01598966412755
256.0,163.4115973755349
257.0,116.70679773453944
258.0,52.6409817102518
259.0,31.642156840753813
260.0,79.35770722252296
261.0,64.62605528042049
262.0,36.785021744120264
263.0,87.37545945352647
264.0,90.12417540641077
265.0,85.44269718460191
266.0,90.89641426290302
267.0,61.74925649837427
268.0,34.7339285390693
269.0,78.86406393205012
270.0,128.8558269845458
271.0,52.325221869603354
272.0,80.3277071611262
273.0,161.24101378431766
274.0,150.21437259814675
275.0,113.7840700982377
276.0,74.76187196756048
277.0,105.60530604130945
278.0,204.64682567816493
279.0,166.64240513900265
280.0,183.6833580380454
281.0,268.42934353932674
282.0,223.9493989943756
283.0,226.94710962715607
284.0,309.7064077572217
285.0,364.18249012642036
286.0,312.1143386250771
287.0,319.9182035534554
288.0,388.0747263430146
289.0,425.8882852913241
290.0,425.3905485507065
291.0,382.01900921379894
292.0,350.1958934108352
293.0,362.3791159289628
294.0,327.89528907275127
295.0,292.3383247505811
296.0,286.1444009487302
297.0,283.8932152741747
298.0,300.26980027942466
299.0,291.635070736107
300.0,266.47753403781206
301.0,296.5738305040554
302.0,318.8774014563811
303.0,311.2770590742092
304.0,303.6525890717834
305.0,326.0862739196679
306.0,353.36797393031725
307.0,370.95695703503986
308.0,397.89401372723364
309.0,467.5414441435526
310.0,546.657076679173
311.0,613.8419999869309
312.0,693.9539239732158
313.0,830.4044107925519
314.0,979.4306369452551
315.0,1147.568201483533
316.0,1419.069611177635
317.0,1790.8149346999844
318.0,2079.029390084492
319.0,2170.9975268334433
320.0,2178.0160254665334
321.0,2223.803604202861
322.0,2248.611922269683
323.0,2105.3058759188766
324.0,1757.1955835537951
325.0,1414.5586104824604
326.0,1067.9634242690215
327.0,684.1827067437308
328.0,547.9106247295708
329.0,432.56497939482614
330.0,255.36829221704787
331.0,164.04070486195175
332.0,93.60004889546437
333.0,96.74861381547339
334.0,121.38168570386715
335.0,37.4871808281825
336.0,27.122332022165313
337.0,40.402170914034045
338.0,9.65455893801746
339.0,14.805160826052232
340.0,12.383124988106472
341.0,-3.933434332798626
342.0,18.14040119306396
343.0,105.52969930570382
344.0,85.85741354392047
345.0,1.2912365160868542
346.0,3.3816632199357155
347.0,59.995122990415155
348.0,73.77953549877488
349.0,34.6589295361259
350.0,5.799400151283045
351.0,7.182041225903573
352.0,6.698956733826665
353.0,11.861229408387539
354.0,43.45655538067971
355.0,23.443234176089067
356.0,10.407310251082588
357.0,28.642777309449293
358.0,22.680730202231945
359.0,57.71008782251209
360.0,59.308700371598526
361.0,5.112125067049207
362.0,11.196924339126738
363.0,10.525302549660104
364.0,22.351662300195432
365.0,66.17751967744464
366.0,61.5769045609416
367.0,46.077434311111524
368.0,41.01545386747084
369.0,43.44296766481269
370.0,61.54031070289434
371.0,54.47976490156672
372.0,54.74622802595134
373.0,85.93611055691866
374.0,43.435143505516365
375.0,40.587618722124574
376.0,96.56421570153503
377.0,113.07256398249147
378.0,112.96428132510191
379.0,153.59789932219812
380.0,197.3818037108841
381.0,183.60506783950518
382.0,248.15900965474597
383.0,349.07628955679917
384.0,410.29378705639834
385.0,462.8660784434568
386.0,607.3851554655547
387.0,790.1458711215245
388.0,1061.5944581814679
389.0,1578.399502090203
390.0,2038.0676174413074
391.0,2514.8754233581694
392.0,3103.5123485769436
393.0,3593.4311951969125
394.0,4064.5328544044414
395.0,4390.088322712786
396.0,4437.57290766463
397.0,4325.529985920159
398.0,3989.0280860544913
399.0,3395.825075858868
400.0,2702.1221034336213
401.0,2201.3097589729246
402.0,1803.9108662778274
403.0,1430.7533813164587
404.0,1146.3788590973388
405.0,1031.8412698237387
406.0,886.4745301262511
407.0,671.3804171226465
408.0,542.3266688962647
409.0,546.155116038633
410.0,492.8152702973223
411.0,404.6882564331777
412.0,446.71250037241253
413.0,481.2079818015993
414.0,486.9880407968323
415.0,543.6577751765351
416.0,684.6653072188807
417.0,763.0264093364908
418.0,799.2003784976148
419.0,870.3538547086617
420.0,990.6505234523754
421.0,1094.5236316132732
422.0,1109.5913563152353
423.0,1012.7711069399908
424.0,861.5347310518972
425.0,770.5965610481659
426.0,678.4142297187283
427.0,550.8030271629192
428.0,473.8579616601661
429.0,424.09150971516806
430.0,341.74923637807086
431.0,245.23276692720628
432.0,224.36661710799495
433.0,237.3920212764622
434.0,290.90084332223836
435.0,335.5877819119666
436.0,287.2822960282108
437.0,400.58497782082134
438.0,517.442028292217
439.0,535.2055071869939
440.0,734.2575567430695
441.0,893.0651386659695
442.0,974.1399567343252
443.0,1037.5072580352787
444.0,1023.2569703339001
445.0,1012.039643003511
446.0,932.1680921735091
447.0,761.6090819807366
448.0,688.2589682438471
449.0,611.857356286784
450.0,521.579664972233
451.0,463.74266601429304
452.0,395.1421884634619
453.0,324.1024495810285
454.0,264.1800703530711
455.0,224.60889327153467
456.0,208.76619685496982
457.0,169.1380567496796
458.0,119.93802249409958
459.0,107.84568611961555
460.0,127.83661562730217
461.0,126.87930550500921
462.0,107.36255305555628
463.0,92.31832810882601
464.0,61.54282109289262
465.0,41.04182710943817
466.0,55.363577608157854
467.0,82.44986673298317
468.0,66.37140689313931
469.0,70.66785189318298
470.0,61.0286179256538
471.0,20.28130809316233
472.0,80.37304879999745
473.0,57.402111062164735
474.0,-0.180444390456143
475.0,35.77609020570478
476.0,14.981947263082269
477.0,3.2797058619098967
478.0,14.28495016989697
479.0,9.354244617973507
480.0,29.81623916121304
481.0,85.1035834817889
482.0,104.05122812747933
483.0,66.67729358384048
484.0,89.06186580896986
485.0,57.727661282358476
486.0,8.432584809484723
487.0,29.904645339648916
488.0,25.424631235397374
489.0,18.208347332323918
490.0,22.1032657825603
491.0,20.752744947917854
492.0,18.785948072143185
493.0,41.590120369834445
494.0,59.6884921247272
495.0,46.67037116082853
496.0,44.64395861057284
497.0,35.24868091740067
498.0,19.609569472352135
499.0,9.080448671272858
500.0,-0.26643394428660994
501.0,42.22696013706428
502.0,51.112301335958186
503.0,0.4956689674027004
504.0,53.88724019052825
505.0,49.82862543055939
506.0,30.560309221162672
507.0,67.40804059790092
508.0,29.169463028603012
509.0,49.26010755076719
510.0,87.60240707719385
511.0,45.97926779177573
512.0,4.4365065673652175
513.0,94.04322376556742
514.0,156.7828101568983
515.0,96.40576777187535
516.0,104.21947705829994
517.0,113.17924154154275
518.0,146.76904927482605
519.0,215.12590248160353
520.0,229.4576732368408
521.0,260.13478805649976
522.0,296.4012203163593
523.0,317.92977857752766
524.0,358.4152674680309
525.0,386.5506041706146
526.0,403.33148687705227
527.0,407.57901058790117
528.0,399.59105501319044
529.0,456.51070012079015
530.0,430.55176285614857
531.0,347.30969277234965
532.0,395.65909816865457
533.0,312.6642299282553
534.0,183.81708514329364
535.0,165.7860707897076
536.0,221.20994641316616
537.0,207.96069691474608
538.0,168.98472728233725
539.0,131.25640963162755
540.0,64.73992274222827
541.0,36.6821187610863
542.0,15.173374775064211
543.0,1.915393998970019
544.0,31.697431816579694
545.0,54.747805399753375
546.0,56.5198937926835
547.0,45.829635177368004
548.0,32.74501140570914
549.0,19.734843371507097
550.0,11.898985891090973
551.0,11.105378472713982
552.0,10.261666858177968
553.0,1.6231366605276731
554.0,15.960823325420947
555.0,30.915870407795918
556.0,15.984634592060763
557.0,6.788848739514101
558.0,38.97423984568962
559.0,63.243473987645864
560.0,61.18198850601775
561.0,97.4017207838753
562.0,83.50883054683683
563.0,62.95104081994652
564.0,114.23168336694549
565.0,185.48892655553277
566.0,128.2080356902493
567.0,108.70214518198433
568.0,179.5220226865063
569.0,143.748677106844
570.0,100.00608619475562
571.0,120.91462953011559
572.0,169.7357652124998
573.0,176.6990583007518
574.0,181.26646158398967
575.0,230.8987147613901
576.0,284.61831175813103
577.0,280.6590601933384
578.0,289.99197206111734
579.0,362.7513578972065
580.0,418.7823236815093
581.0,403.840214223634
582.0,448.77716514799874
583.0,411.96319657092613
584.0,411.44506069497254
585.0,502.17883571899466
586.0,339.839857901814
587.0,257.13108890616314
588.0,328.7546984426291
589.0,366.1801798471597
590.0,310.62081308670383
591.0,326.99292075444544
592.0,313.0892802248445
593.0,235.26977410947427
594.0,268.873216249945
595.0,249.6375161780412
596.0,211.84923240691728
597.0,233.08878611436333
598.0,263.02726067560513
599.0,214.78520245883342
600.0,185.71746756974056
601.0,211.55748418102155
602.0,209.87024089124293
603.0,163.30086308774142
604.0,148.3717379386674
605.0,161.12113376187588
606.0,155.3649055539422
607.0,164.97815989486003
608.0,149.72062274990608
609.0,123.21024993925502
610.0,125.869249987852
611.0,136.105246386919
612.0,94.43667988960917
613.0,73.41615905481278
614.0,105.21074167334184
615.0,96.86288404644387
616.0,99.4917037197433
617.0,118.6413989551694
618.0,113.8910715048708
619.0,88.9952679835807
620.0,149.48780027897658
621.0,179.81773611522863
622.0,112.51756186038158
623.0,67.612844770294
624.0,178.20249411756765
625.0,182.61981042839906
626.0,121.81171481465667
627.0,146.69327317331164
628.0,50.260954005115025
629.0,48.647373673607355
630.0,91.78245290735796
631.0,68.82660139917539
632.0,114.31813135714575
633.0,110.33863324667388
634.0,81.36306086270388
635.0,73.30497445936294
636.0,43.929859763237374
637.0,33.12018694344262
638.0,28.031889441352966
639.0,22.624222420864132
640.0,28.75326148127455
641.0,17.5053761536806
642.0,20.67200738538055
643.0,37.63495727509399
644.0,33.72916607201753
645.0,17.860766776145383
646.0,59.05335109618956
647.0,93.13897127932854
648.0,90.87349479341306
649.0,150.18411124767775
650.0,97.13108312029786
651.0,62.7213953113792
652.0,95.593641696331
653.0,39.078782385518046
654.0,119.96757378518694
655.0,163.45028937706425
656.0,141.1390260925837
657.0,197.67468768551996
658.0,126.4011539726049
659.0,108.7287582806191
660.0,219.2840495208076
661.0,298.2881323314316
662.0,241.11425472024374
663.0,295.8209856039822
664.0,352.86891372470205
665.0,313.674905956793
666.0,388.66648514856945
667.0,416.7065544411191
668.0,484.0834191824032
669.0,608.9017262662074
670.0,650.3053757095781
671.0,740.2218464288948
672.0,959.6249161436343
673.0,1161.773081566266
674.0,1300.0150677231563
675.0,1733.0081518454394
676.0,2258.9738720896294
677.0,2888.35199558294
678.0,3792.2258751909103
679.0,4956.933726704463
680.0,6381.006094379073
681.0,8043.09288234627
682.0,9675.464260328316
683.0,10874.72091984866
684.0,11592.261455401758
685.0,11589.129994139674
686.0,10570.265353039551
687.0,8763.617043625953
688.0,7157.997641693891
689.0,5712.776776264287
690.0,4526.7193769151
691.0,3709.548610022694
692.0,2952.569779849917
693.0,2439.8221707142493
694.0,2027.2632170437557
695.0,1670.4181672333273
696.0,1538.0463705721331
697.0,1287.1400354472567
698.0,1142.0682274147346
699.0,1071.237170485261
700.0,858.5669769276839
701.0,829.8738847416396
702.0,783.6336719837376
703.0,691.4527997651207
704.0,664.9002930711624
705.0,636.1435322636145
706.0,574.7188773464459
707.0,544.2782248571013
708.0,518.38936664249
709.0,397.0551625186632
710.0,295.01602250152325
711.0,301.16145125920264
712.0,296.8498325605084
713.0,203.66160445823036
714.0,234.30959377061419
715.0,193.09970511331176
716.0,144.4084575710796
717.0,187.5302286722198
718.0,162.50201790973065
719.0,121.21040133814157
720.0,115.28209056859617
721.0,140.52751322004457
722.0,175.5055287367543
723.0,219.80270113639412
724.0,188.14472525066148
725.0,105.73451364191222
726.0,78.07267418500547
727.0,119.09695229730698
728.0,121.08230192634642
729.0,79.20894854421448
730.0,46.817435830202356
731.0,47.58751227107196
732.0,85.29035695921414
733.0,109.80595202492617
734.0,103.74138746004635
735.0,89.39501573119067
736.0,70.4441252051826
737.0,65.34963444377675
738.0,64.78747721668832
739.0,53.47560171680467
740.0,45.465862928591314
741.0,62.12580268790944
742.0,53.84021560768765
743.0,50.92847537423599
744.0,113.77592452529484
745.0,130.1393462422969
746.0,175.93806303556846
747.0,183.78306041806226
748.0,76.32870985783818
749.0,11.03485399527395
750.0,47.3941012198163
751.0,75.52101029554908
752.0,65.41208234110223
753.0,110.67703662813798
754.0,145.95736275643304
755.0,89.44173961936119
756.0,62.38009308721083
757.0,148.83106119695344
758.0,136.36227955917056
759.0,86.22021563629188
760.0,74.309855101155
761.0,111.95142647985884
762.0,165.14400510144344
763.0,176.8688919246478
764.0,202.65053902025758
765.0,282.51476017795306
766.0,346.576536014533
767.0,322.31185974281277
768.0,500.7065105659384
769.0,603.7405007814184
770.0,496.81267129169646
771.0,573.0304434535143
772.0,570.7962256011599
773.0,465.5215280858542
774.0,437.53319182493124
775.0,484.75512271052514
776.0,321.58270094525903
777.0,313.9798077616268
778.0,314.6785941321606
779.0,180.80267452199863
780.0,222.91934811735678
781.0,193.4352438039155
782.0,147.5133846421918
783.0,165.04459139365133
784.0,153.40648500629996
785.0,50.72411894713632
786.0,52.9105107661658
787.0,116.47368391526145
788.0,90.12971132344765
789.0,22.022523690059547
790.0,84.58188490530206
791.0,79.12496158061163
792.0,20.089615367074675
793.0,85.90606589864055
794.0,87.09242205035385
795.0,27.948158480711037
796.0,48.85011895194299
797.0,146.63254513122484
798.0,141.7055629804496
799.0,73.7454451556466
800.0,32.281251337238736
801.0,39.52178911818298
802.0,59.9954621001071
803.0,65.58904728414134
804.0,20.158233812698406
805.0,41.94688043730497
806.0,101.22682226919278
807.0,19.360007396775693
808.0,25.93989147864607
809.0,51.627408908826375
810.0,36.13965795591304
811.0,26.112025156757134
812.0,14.97584248567357
813.0,32.6453636935734
814.0,74.55219018634531
815.0,82.98673928369695
816.0,35.42493860602049
817.0,43.834615757375516
818.0,29.75438706476739
819.0,-0.9902474518022161
820.0,29.743223147597927
821.0,78.13245629553978
822.0,37.266192721471036
823.0,1.478666584535324
824.0,42.14180413263052
825.0,84.27908067567789
826.0,70.79859593687054
827.0,23.908097141533226
828.0,5.759440980446367
829.0,51.118398807523064
830.0,108.200482166968
831.0,62.75037688397295
832.0,60.096494160011225
833.0,90.86681513229121
834.0,26.87503809628317
835.0,5.678840152544579
836.0,2.605871683003734
837.0,10.318381939942435
838.0,31.942198432547382
839.0,42.03131958699296
840.0,55.43220473120577
841.0,39.54243654960418
842.0,58.26434942937049
843.0,113.20913413089222
844.0,31.550930643522136
845.0,-5.251096683259137
846.0,75.03008983349946
847.0,117.44642616826104
848.0,21.76559708662894
849.0,33.946441108056575
850.0,39.74228619126847
851.0,19.78918989947957
852.0,57.96178497518073
853.0,123.2720725612127
854.0,124.2112409839299
855.0,148.92901518899487
856.0,153.99944370543847
857.0,93.76781462576963
858.0,164.83168727293187
859.0,117.77828428436632
860.0,24.17282580698398
861.0,26.543954599909366
862.0,64.19853709424466
863.0,108.15665928853038
864.0,79.1711084664311
865.0,53.697244453963116
866.0,79.0084292634742
867.0,37.13018037366014
868.0,26.248803414629858
869.0,45.94224724750862
870.0,77.66245885190102
871.0,99.63322606212944
872.0,43.45499792248214
873.0,24.787570619949946
874.0,31.43335940030723
875.0,25.30435374849544
876.0,28.468522171960352
877.0,5.320910331871254
878.0,34.47752315499632
879.0,77.22769763313455
880.0,65.1694173443029
881.0,56.73285095409253
882.0,90.51374145942609
883.0,135.09243819409767
884.0,121.30494643093735
885.0,76.42782684068291
886.0,125.50286008963919
887.0,65.04393502079367
888.0,27.24929538319054
889.0,98.78268801805744
890.0,111.83529466371503
891.0,62.450486508261754
892.0,60.12059200930495
893.0,100.37784926576393
894.0,135.37525651016855
895.0,145.27804364569255
896.0,39.93411971300888
897.0,84.38912449777712
898.0,150.5277245451596
899.0,85.19317442477555
900.0,220.64230993157793
901.0,189.70954762496032
902.0,115.48651439713686
903.0,139.1730973568982
904.0,158.46698131394598
905.0,195.49491474797395
906.0,219.2744585084547
907.0,251.6605113125459
908.0,279.0397820538719
909.0,271.85855722076485
910.0,339.6846888571299
911.0,346.6152818505147
912.0,305.169174263886
913.0,322.1659899963231
914.0,352.0038417522348
915.0,282.5384613981447
916.0,343.35252280132494
917.0,473.08096581851487
918.0,447.0974214347979
919.0,385.9659478081677
920.0,400.3842344100585
921.0,387.9991426846169
922.0,358.9695494418331
923.0,401.8379997795498
924.0,385.4071783832332
925.0,322.2497258275449
926.0,307.3445589183573
927.0,319.8124278523598
928.0,267.2774619248704
929.0,232.01072472121353
930.0,226.21131670267943
931.0,208.44862215433176
932.0,184.23516375684565
933.0,190.82228493607516
934.0,160.3581118737705
935.0,157.3860465156796
936.0,196.75308521601127
937.0,202.58108099661555
938.0,162.2432841363512
939.0,237.84389615932304
940.0,199.9506943494406
941.0,100.55894595548543
942.0,154.60084951706668
943.0,206.06749247245412
944.0,211.02832527453253
945.0,133.7846611425709
946.0,65.15793619138313
947.0,126.69920570240843
948.0,208.00551620806976
949.0,112.68896494829494
950.0,72.39982539234177
951.0,125.73910003462844
952.0,80.48493574804405
953.0,163.4056182973444
954.0,177.2643915112092
955.0,80.4741245709155
956.0,63.84174320571515
957.0,176.87275693414279
958.0,106.03737979184197
959.0,55.8857359745686
960.0,97.72116053679453
961.0,130.80263346363063
962.0,131.73421818865845
963.0,109.96552513837928
964.0,71.14740846669037
965.0,72.23367849117766
966.0,111.52077346981129
967.0,110.44579757008745
968.0,153.94164012650913
969.0,182.99667470353845
970.0,168.22175310932892
971.0,161.32087309991394
972.0,185.31944091439402
973.0,183.72174050014843
974.0,160.87485875855165
975.0,144.73693186713484
976.0,140.3736960630817
977.0,138.99845324905877
978.0,156.08346416728864
979.0,150.9665409395172
980.0,165.5638328497015
981.0,232.5678876162667
982.0,235.94023858272053
983.0,238.8340932626857
984.0,268.9135751083895
985.0,263.5436671212897
986.0,227.642
987.0,293.74447023980133
988.0,282.03977276753307
989.0,270.5865855537068
990.0,335.8962979112927
991.0,389.4586347885688
992.0,400.97769059905085
993.0,400.51176669064785
994.0,449.56609725920396
995.0,506.4942659824178
996.0,521.7130197887893
997.0,613.4799333526356
998.0,653.9404534359012
999.0,721.1870675517878
1000.0,791.6304703186203
1001.0,779.8174012758719
1002.0,949.5362629410321
1003.0,995.9656618536735
1004.0,1012.6155161001458
1005.0,1093.2653013183644
1006.0,1101.5903771319647
1007.0,1208.3220967759523
1008.0,1394.2341109575882
1009.0,1428.0552903568507
1010.0,1414.0928044165516
1011.0,1591.7644217704285
1012.0,1570.9019123587923
1013.0,1596.5145850011008
1014.0,1562.7755357899202
1015.0,1355.727586528029
1016.0,1195.7264626780416
1017.0,1118.6955038772658
1018.0,999.6785741455328
1019.0,917.805116592057
1020.0,846.2626692881331
1021.0,673.2883889424795
1022.0,668.5560639200891
1023.0,656.9473583787566
1024.0,520.2880399338902
1025.0,443.0822799997431
1026.0,549.486398328199
1027.0,492.8965272781795
1028.0,413.91938385283316
1029.0,412.9513633990081
1030.0,462.9991105081886
1031.0,513.9235575545224
1032.0,488.68858001198544
1033.0,420.9405786391432
1034.0,419.5490657051723
1035.0,471.8746554999799
1036.0,456.9636542990321
1037.0,396.60511137702224
1038.0,408.4875632627252
1039.0,477.2941377539051
1040.0,459.0060822853105
1041.0,370.2664813025426
1042.0,487.2494045526142
1043.0,462.5557286627275
1044.0,388.11684269425245
1045.0,426.9597259256252
1046.0,437.7948110936977
1047.0,341.7419495472811
1048.0,369.02985656966325
1049.0,443.49164495045665
1050.0,515.11913021227
1051.0,607.8623630307003
1052.0,547.6301606839925
1053.0,542.6583418336438
1054.0,610.8667451147179
1055.0,644.032793643977
1056.0,650.1659860222442
1057.0,748.2112802872347
1058.0,852.335893425637
1059.0,880.0618769566443
1060.0,977.2034057594915
1061.0,1224.6889025903529
1062.0,1406.1513025121562
1063.0,1658.7271378836447
1064.0,1880.8779512092876
1065.0,2088.072555349718
1066.0,2390.8921561912657
1067.0,2625.355414445456
1068.0,2530.0837457767116
1069.0,2678.6869576088397
1070.0,2764.585394570605
1071.0,2416.982291490411
1072.0,2268.3359800790518
1073.0,2126.1026441475356
1074.0,1916.7668810355349
1075.0,1677.1975475213646
1076.0,1483.6348247774174
1077.0,1396.9025889681138
1078.0,1305.4814652214059
1079.0,1094.1821196993853
1080.0,1000.0694281393262
1081.0,1035.6966255662226
1082.0,890.483364156275
1083.0,764.7078185104904
1084.0,788.9809196165871
1085.0,743.1460604362197
1086.0,619.1232906719008
1087.0,629.7461691757344
1088.0,589.6670337394422
1089.0,502.0417385842087
1090.0,476.3972623098374
1091.0,467.8177655711583
1092.0,408.8560161553397
1093.0,423.4046780802366
1094.0,356.3157519814111
1095.0,315.3989965757689
1096.0,318.4447793918202
1097.0,275.33418128734485
1098.0,262.2692496649768
1099.0,286.0363414153967
1100.0,266.3713144435505
1101.0,266.16631778439347
1102.0,277.921403069228
1103.0,173.6752699116125
1104.0,214.03615936318147
1105.0,217.71622560101966
1106.0,199.77510431634602
1107.0,206.14608457847652
1108.0,144.09965761154416
1109.0,194.66817349675372
1110.0,161.53228358858303
1111.0,112.5864077608168
1112.0,147.70612880079864
1113.0,169.66114407193302
1114.0,153.66633253602745
1115.0,142.3674691879806
1116.0,148.34469626129925
1117.0,139.70698703131796
1118.0,118.33195002715176
1119.0,142.51027853533395
1120.0,158.94008545802728
1121.0,169.77357285295832
1122.0,151.3135924992881
1123.0,113.26250708947764
1124.0,130.02045940249033
1125.0,128.64109902706525
1126.0,111.426552434966
1127.0,120.38754258057232
1128.0,138.29669310866376
1129.0,121.49680913682943
1130.0,118.25210673927428
1131.0,87.005909135316
1132.0,46.42844582838522
1133.0,57.96508273141948
1134.0,113.68668323922066
1135.0,110.41387366344466
1136.0,29.493703023490973
1137.0,35.92318158864896
1138.0,96.45710161869141
1139.0,99.18715489646014
1140.0,113.7884225073742
1141.0,26.281395681900854
1142.0,31.484619693025753
1143.0,50.12713086896907
1144.0,3.6035666201596683
1145.0,44.236997215046806
1146.0,4.3051939266487445
1147.0,91.55367157152396
1148.0,91.14053510622936
1149.0,12.195627796308399
1150.0,98.09656292754288
1151.0,17.741744713648274
1152.0,2.441612321891288
1153.0,10.459215740920932
1154.0,23.389719683845666
1155.0,76.58105996695048
1156.0,60.48496650678163
1157.0,114.58907640889805
1158.0,99.04976646230776
1159.0,24.511088290136346
1160.0,0.676075891297562
1161.0,8.75819805681049
1162.0,36.437800832476285
1163.0,76.51595022881543
1164.0,69.7379009602304
1165.0,21.155530336890056
1166.0,1.7589869520989063
1167.0,6.6816237950412045
1168.0,-7.986465079420464
1169.0,50.368913335588985
1170.0,66.20466675279845
1171.0,24.216472102829282
1172.0,132.8345222483424
1173.0,41.60189219166748
1174.0,-0.026733056752253792
1175.0,34.73570783829938
1176.0,53.59001138218732
1177.0,82.80328779033358
1178.0,21.1288792662951
1179.0,29.036207102553732
1180.0,94.19574035506872
1181.0,118.54167425353569
1182.0,91.4517671346122
1183.0,91.7990245654066
1184.0,174.73284877856668
1185.0,159.78170392772338
1186.0,90.55761808829824
1187.0,112.97326153786659
1188.0,168.6940929554745
1189.0,128.82963947776292
1190.0,98.50502185667219
1191.0,90.93325237970672
1192.0,108.43748391949654
1193.0,159.26302128583342
1194.0,160.2508014652725
1195.0,122.72259745408422
1196.0,166.9068598928135
1197.0,184.28477544747437
1198.0,126.83475599219274
1199.0,137.11113714068483
1200.0,99.98850112247558
1201.0,154.4270906080249
1202.0,132.36700757493992
1203.0,95.21719244836288
1204.0,158.50598444085924
1205.0,25.94809566505299
1206.0,107.5966723087182
1207.0,129.5273855346449
1208.0,127.10704028953423
1209.0,170.39482602434094
1210.0,48.2537471035105
1211.0,111.63031687493567
1212.0,140.01814262961616
1213.0,112.10428610117604
1214.0,164.44976639150372
1215.0,236.0593352794938
1216.0,144.4441441424814
1217.0,73.1181356478285
1218.0,172.14057995397187
1219.0,256.6114582564366
1220.0,207.57801931008532
1221.0,180.3711148073861
1222.0,190.11184826638788
1223.0,260.065345005019
1224.0,264.8845189434025
1225.0,282.3553292752326
1226.0,393.36029960705747
1227.0,395.74651541778974
1228.0,413.4013250647159
1229.0,335.02315640323013
1230.0,326.52185185474195
1231.0,429.01225810123776
1232.0,397.2962585440221
1233.0,322.1508178455338
1234.0,327.77772665291286
1235.0,390.7954752096631
1236.0,455.4668279447985
1237.0,476.1463778553729
1238.0,441.7561401610349
1239.0,478.11796898213015
1240.0,560.1259597275877
1241.0,610.5234814707668
1242.0,707.1284346037488
1243.0,900.80404030625
1244.0,990.1165681553323
1245.0,1026.6635059143655
1246.0,1010.8567536134816
1247.0,970.9211235233722
1248.0,902.5412413736516
1249.0,735.3637455869496
1250.0,538.3918001460413
1251.0,504.9767694337749
1252.0,503.84409168586603
1253.0,379.9968302222248
1254.0,245.29436547895773
1255.0,242.8493038791744
1256.0,147.27532996629125
1257.0,122.32562418106873
1258.0,162.59203232887594
1259.0,158.18706528747907
1260.0,152.25438569427402
1261.0,195.1900552223976
1262.0,125.31872353539062
1263.0,120.39568181181899
1264.0,179.99631026676786
1265.0,175.5843023860968
1266.0,127.6998968179517
1267.0,64.38260107399225
1268.0,106.53813767875387
1269.0,104.29344314145656
1270.0,94.5836871982686
1271.0,150.84221110491563
1272.0,103.17062767741315
1273.0,112.79581623076909
1274.0,149.29122630978762
1275.0,143.52901405567835
1276.0,85.79570700619763
1277.0,51.45394211369685
1278.0,109.20140826023732
1279.0,82.57809099015952
1280.0,109.12980024361177
1281.0,162.33740153939513
1282.0,110.8533533568936
1283.0,19.70453024894533
1284.0,35.35593356219386
1285.0,60.58516869579774
1286.0,56.20434297900057
1287.0,93.95539085659331
1288.0,130.29843620865543
1289.0,65.05630581575096
1290.0,87.73684058909242
1291.0,122.01395608526471
1292.0,97.88938261018122
1293.0,62.495052194444476
1294.0,45.15369356444922
1295.0,31.854862384231286
1296.0,121.0678355113999
1297.0,79.66736626659711
1298.0,48.72850723354665
1299.0,100.27943529046973
1300.0,84.91247747647532
1301.0,49.472521376177546
1302.0,37.615153981498324
1303.0,69.4898347297866
1304.0,60.65142366133742
1305.0,28.942911889308252
1306.0,57.976537971318265
1307.0,60.803176267850255
1308.0,49.63145300072294
1309.0,37.15848999652803
1310.0,18.29156323717007
1311.0,32.23833401732503
1312.0,77.57482475871775
1313.0,41.0254972008817
1314.0,72.98729279737105
1315.0,103.73613670917764
1316.0,75.01094452908538
1317.0,62.53804171633486
1318.0,88.66199999999999
1319.0,33.92977692440769
1320.0,1.3341558949774637
1321.0,52.18978643023265
1322.0,60.73198823551503
1323.0,6.639524072792723
1324.0,35.4302971003942
1325.0,39.367077298985286
1326.0,21.29591401301372
1327.0,55.58243927324552
1328.0,54.59600599821756
1329.0,5.979924845755381
1330.0,48.761203532428844
1331.0,9.181226200155447
1332.0,37.85155147102925
1333.0,131.66384515959825
1334.0,110.91556356858891
1335.0,3.4921125980558263
1336.0,38.369323291652286
1337.0,76.45020161934288
1338.0,56.2590357867339
1339.0,70.69628426763879
1340.0,76.92481810480969
1341.0,35.267939982070864
1342.0,80.1688244526265
1343.0,106.10351159316261
1344.0,58.56135267729089
1345.0,72.28891374033806
1346.0,104.60618193011224
1347.0,53.377644194073035
1348.0,51.28365528636736
1349.0,95.72943814310516
1350.0,115.71250673422941
1351.0,88.39739960800546
1352.0,80.80030360912579
1353.0,121.21287584756975
1354.0,139.8214387955424
1355.0,153.5661928100035
1356.0,106.13135125745046
1357.0,91.00455154044118
1358.0,116.30353184549601
1359.0,100.93445253686137
1360.0,92.52096234565124
1361.0,126.92166287165513
1362.0,126.86640713946186
1363.0,102.46168467689857
1364.0,110.52177193239018
1365.0,134.76599397337156
1366.0,120.5895855187992
1367.0,122.38455988839246
1368.0,167.0197663766218
1369.0,168.02921051388273
1370.0,129.08953315138143
1371.0,70.41340388882882
1372.0,3.7563035521643755
1373.0,155.3199946868792
1374.0,121.60038650462124
1375.0,50.373856446930446
1376.0,164.80394905067544
1377.0,245.73654528932423
1378.0,99.59468719432353
1379.0,76.64533427397545
1380.0,99.47866771839222
1381.0,76.9121219668673
1382.0,91.1055356957392
1383.0,150.5478345000351
1384.0,122.30607157810017
1385.0,81.7284703339691
1386.0,200.44979922405554
1387.0,201.16660941680945
1388.0,79.90605473507979
1389.0,76.30974673709449
1390.0,153.11124832033897
1391.0,123.0239529093455
1392.0,100.69609554785852
1393.0,88.73798855265498
1394.0,17.574532831645975
1395.0,40.36155350570873
1396.0,185.14016147197717
1397.0,56.97104257123869
1398.0,116.99899398315718
1399.0,181.55517157416398
1400.0,110.92131137534244
1401.0,63.90647116122788
1402.0,123.19088485933348
1403.0,167.15136981334075
1404.0,162.70471930833256
1405.0,128.7131835122371
1406.0,100.84022770371537
1407.0,87.8238374076011
1408.0,67.26671570290422
1409.0,66.79192073274625
1410.0,167.71658656791757
1411.0,110.7629924934443
1412.0,93.74608581872292
1413.0,165.58492399567814
1414.0,142.83875104148586
1415.0,84.36965753456893
1416.0,69.1223467920557
1417.0,124.50326349267132
1418.0,172.19217681365637
1419.0,174.5038280298065
1420.0,172.15481966841995
1421.0,169.81666084958147
1422.0,124.08683364038461
1423.0,153.2902902580495
1424.0,106.3448356556142
1425.0,69.79308434137766
1426.0,145.32665960368195
1427.0,200.88339241026816
1428.0,176.51417826364275
1429.0,114.14224724343617
1430.0,90.3550646224221
1431.0,113.70451904909692
1432.0,133.63112560214194
1433.0,136.6771434007861
1434.0,159.46585020688028
1435.0,173.8334560163783
1436.0,192.41974149557768
1437.0,222.30135478582255
1438.0,242.11269792743758
1439.0,254.00012308130445
1440.0,251.59812381546976
1441.0,184.4306282728843
1442.0,235.00998724778094
1443.0,211.20004116178362
1444.0,158.04520611260193
1445.0,194.13757568252043
1446.0,196.71229928909776
1447.0,126.72540571733091
1448.0,140.8142252011923
1449.0,168.93864846019392
1450.0,165.2707591316285
1451.0,139.39630771538128
1452.0,168.0068191468784
1453.0,259.9920338164267
1454.0,140.08543034352175
1455.0,162.94231468667232
1456.0,274.1734463868081
1457.0,199.24100175528991
1458.0,112.3179745933469
1459.0,305.426106475263
1460.0,378.2914133658569
1461.0,176.16803471570836
1462.0,206.62088961981803
1463.0,180.14200773850376
1464.0,67.18394850825727
1465.0,245.57626849548248
1466.0,312.38813489948154
1467.0,106.31538439750273
1468.0,205.42480517268115
1469.0,234.4256147491444
1470.0,138.61837834679514
1471.0,166.439420468247
1472.0,178.801116166373
1473.0,261.4346990687705
1474.0,152.72451810646487
1475.0,154.3312306775279
1476.0,142.0827554666867
1477.0,50.6695570689615
1478.0,104.48091336057885
1479.0,186.35272824197096
1480.0,236.36453781446824
1481.0,154.1096625543422
1482.0,192.06477459040877
1483.0,165.09089400903696
1484.0,78.16201738851377
1485.0,245.42168421145593
1486.0,110.63740970460128
1487.0,94.58556958082357
1488.0,149.1013047552533
1489.0,207.42939736271637
1490.0,185.67629470462603
1491.0,112.21540744811593
1492.0,195.90326878767303
1493.0,106.71434492340764
1494.0,169.12745180377334
1495.0,190.81003612515715
1496.0,152.26369061717955
1497.0,221.72476639058428
1498.0,206.51375505852616
1499.0,15.188103590681834
1500.0,209.09735956008404
1501.0,107.39419796667285
1502.0,70.21724826360371
1503.0,207.65140685861593
1504.0,101.21454960910464
1505.0,50.41033383980808
1506.0,161.19908340583652
1507.0,118.2708046855521
1508.0,80.59471038050351
1509.0,95.87876021246447
1510.0,119.57814112301676
1511.0,126.69123203288022
1512.0,33.59465952721856
1513.0,137.21184805632765
1514.0,156.67303203494
1515.0,133.93060320207607
1516.0,56.97518348875748
1517.0,24.95042343924128
1518.0,156.67649380700215
1519.0,21.31765625673244
1520.0,53.01348088462538
1521.0,97.60879986576003
1522.0,0.0
1523.0,0.0
1524.0,0.0
1525.0,0.0
1526.0,0.0
1527.0,0.0
1528.0,0.0
1529.0,0.0
1530.0,0.0
1531.0,0.0
1532.0,0.0
1533.0,0.0
1534.0,0.0
1535.0,0.0
1536.0,0.0
1537.0,0.0
1538.0,0.0
1539.0,0.0
1540.0,0.0
1541.0,0.0
1542.0,0.0
1543.0,0.0
1544.0,0.0
1545.0,0.0
1546.0,0.0
1547.0,0.0
1548.0,0.0
1549.0,0.0
1550.0,0.0
1551.0,0.0
1552.0,0.0
1553.0,0.0
1554.0,0.0
1555.0,0.0
1556.0,0.0
1557.0,0.0
1558.0,0.0
1559.0,0.0
1560.0,0.0
1561.0,0.0
1562.0,0.0
1563.0,0.0
1564.0,0.0
1565.0,0.0
1566.0,0.0
1567.0,0.0
1568.0,0.0
1569.0,0.0
1570.0,0.0
1571.0,0.0
1572.0,0.0
1573.0,0.0
1574.0,0.0
1575.0,0.0
1576.0,0.0
1577.0,0.0
1578.0,0.0
1579.0,0.0
1580.0,0.0
1581.0,0.0
1582.0,0.0
1583.0,0.0
1584.0,0.0
1585.0,0.0
1586.0,0.0
1587.0,0.0
1588.0,0.0
1589.0,0.0
1590.0,0.0
1591.0,0.0
1592.0,0.0
1593.0,0.0
1594.0,0.0
1595.0,0.0
1596.0,0.0
1597.0,0.0
1598.0,0.0
1599.0,0.0
