0.0,0.0
1.0,0.0
2.0,0.0
3.0,0.0
4.0,0.0
5.0,0.0
6.0,0.0
7.0,0.0
8.0,0.0
9.0,0.0
10.0,0.0
11.0,0.0
12.0,0.0
13.0,0.0
14.0,0.0
15.0,0.0
16.0,0.0
17.0,0.0
18.0,0.0
19.0,0.0
20.0,0.0
21.0,0.0
22.0,0.0
23.0,0.0
24.0,0.0
25.0,0.0
26.0,0.0
27.0,0.0
28.0,0.0
29.0,0.0
30.0,0.0
31.0,0.0
32.0,0.0
33.0,0.0
34.0,0.0
35.0,0.0
36.0,0.0
37.0,0.0
38.0,0.0
39.0,0.0
40.0,0.0
41.0,0.0
42.0,0.0
43.0,0.0
44.0,0.0
45.0,0.0
46.0,0.0
47.0,0.0
48.0,0.0
49.0,0.0
50.0,0.0
51.0,0.0
52.0,0.0
53.0,0.0
54.0,0.0
55.0,0.0
56.0,0.0
57.0,0.0
58.0,0.0
59.0,0.0
60.0,0.0
61.0,0.0
62.0,0.0
63.0,0.0
64.0,0.0
65.0,0.0
66.0,0.0
67.0,0.0
68.0,0.0
69.0,0.0
70.0,0.0
71.0,0.0
72.0,0.0
73.0,0.0
74.0,0.0
75.0,0.0
76.0,0.0
77.0,0.0
78.0,0.0
79.0,0.0
80.0,0.0
81.0,0.0
82.0,0.0
83.0,0.0
84.0,0.0
85.0,0.0
86.0,0.0
87.0,0.0
88.0,0.0
89.0,0.0
90.0,0.0
91.0,0.0
92.0,0.0
93.0,0.0
94.0,0.0
95.0,0.0
96.0,0.0
97.0,0.0
98.0,0.0
99.0,0.0
100.0,0.0
101.0,0.0
102.0,0.0
103.0,0.0
104.0,0.0
105.0,0.0
106.0,0.0
107.0,0.0
108.0,0.0
109.0,0.0
110.0,0.0
111.0,0.0
112.0,0.0
113.0,0.0
114.0,0.0
115.0,0.0
116.0,0.0
117.0,0.0
118.0,0.0
119.0,0.0
120.0,0.0
121.0,0.0
122.0,0.0
123.0,0.0
124.0,0.0
125.0,0.0
126.0,-185.54523387588225
127.0,9.369965322860235
128.0,3.05243364643863
129.0,64.40610295547778
130.0,147.46582746136207
131.0,167.4058257734781
132.0,162.71982494066793
133.0,272.39621169390483
134.0,201.24012770700273
135.0,214.20154161923983
136.0,322.8779931734024
137.0,352.1899436173472
138.0,396.77853720604253
139.0,484.14102946185346
140.0,596.4170215875444
141.0,695.3596649745797
142.0,723.1389969184727
143.0,724.6765450538091
144.0,687.0140578718131
145.0,615.4402830394846
146.0,595.4561564647014
147.0,565.2912442042252
148.0,510.0988046352601
149.0,423.0000078728308
150.0,279.76105156603995
151.0,248.5571108892879
152.0,205.3663005681825
153.0,130.70438138335922
154.0,59.63837013029172
155.0,51.72423791285466
156.0,34.94482172216629
157.0,21.283369271029752
158.0,37.16662251724472
159.0,95.53572382894521
160.0,129.76214929985656
161.0,134.9958113275028
162.0,131.04802380771935
163.0,163.80833908231625
164.0,169.1327027623979
165.0,225.08497211376329
166.0,272.0034075293571
167.0,160.06527968234266
168.0,127.9504438687421
169.0,199.27599166733341
170.0,246.36448728938012
171.0,167.89733692622806
172.0,164.03890161543978
173.0,141.2260777090609
174.0,144.50563702562073
175.0,190.91887729317315
176.0,175.5240752025008
177.0,123.59133034707061
178.0,138.7532236158454
179.0,205.62216444310965
180.0,215.59233540588045
181.0,312.3305670812375
182.0,337.6824570039359
183.0,293.2854213215412
184.0,266.9693431405336
185.0,304.5068962156467
186.0,323.03258739596095
187.0,310.5410024825095
188.0,299.34929091925244
189.0,364.7196350573697
190.0,410.11904766099883
191.0,412.4002930347819
192.0,396.5120261989989
193.0,411.53146134273356
194.0,402.6589400349217
195.0,308.93838172634486
196.0,224.31464349175062
197.0,242.65837996817132
198.0,178.58630040311633
199.0,182.83135505979553
200.0,205.3452138076204
201.0,199.9095026921165
202.0,207.01376232661485
203.0,207.5181067579433
204.0,181.6898710850134
205.0,166.71163555138847
206.0,223.18923552994352
207.0,333.98758045228635
208.0,332.86401734933617
209.0,287.77987708478844
210.0,276.6892040613238
211.0,193.38614916319034
212.0,191.52818813000357
213.0,246.58566567747684
214.0,288.52843377544224
215.0,239.58998403799364
216.0,241.2502755562648
217.0,206.9009557337422
218.0,172.71039531665096
219.0,208.6964654924937
220.0,311.88379901482375
221.0,310.58452363009974
222.0,273.107174850909
223.0,272.5386979020755
224.0,334.9266515654093
225.0,348.47714874030436
226.0,310.8604798292332
227.0,273.7865007212703
228.0,293.7725140467033
229.0,304.65299987439573
230.0,369.3439175733801
231.0,365.37520240663696
232.0,279.01943929773716
233.0,381.96088782970133
234.0,419.39670313364394
235.0,410.81615471052044
236.0,399.64883373767833
237.0,421.71231220261
238.0,422.2933850640581
239.0,458.94345002787514
240.0,496.88677576905377
241.0,517.1894640254096
242.0,578.832983359123
243.0,619.8091952196537
244.0,682.9109996198599
245.0,773.322992561477
246.0,868.6589926487596
247.0,969.7757795764021
248.0,995.0854301130507
249.0,1029.407961976884
250.0,1111.3513207496412
251.0,1092.1029255438025
252.0,1039.1385664654665
253.0,949.0917905642319
254.0,813.6308820651107
255.0,628.1812226949376
256.0,401.5148345205798
257.0,224.89080179753535
258.0,91.8431763463595
259.0,3.920389999980064
260.0,36.44615258629153
261.0,44.63294133373144
262.0,55.57830424697889
263.0,66.06819594439256
264.0,61.16675007387351
265.0,51.5839416239239
266.0,37.256593405807315
267.0,31.239831203844993
268.0,22.868887695005323
269.0,31.822693337581626
270.0,44.31531738317584
271.0,88.41588553432346
272.0,125.77666744687981
273.0,89.35043305617145
274.0,78.28545989588916
275.0,47.689789557264504
276.0,24.918715777576082
277.0,33.52701358167197
278.0,72.06341839273288
279.0,91.65847478883167
280.0,98.95936138634477
281.0,118.21341308188033
282.0,169.11754446566513
283.0,246.46491212426798
284.0,215.83124500685693
285.0,233.31219131941734
286.0,307.46443964322117
287.0,317.88061412279757
288.0,384.7648481136743
289.0,425.26342381426963
290.0,502.49587389521145
291.0,619.3268223816725
292.0,620.9994467263637
293.0,583.5000885330574
294.0,543.727970747419
295.0,532.1526110656915
296.0,544.7789047394451
297.0,500.7537571794313
298.0,457.55826969664537
299.0,439.20449759589997
300.0,463.93964098368747
301.0,532.3473982020832
302.0,526.0251733114903
303.0,590.8159846309056
304.0,657.1125012564562
305.0,662.1508428743599
306.0,706.8592142255188
307.0,773.7486114622011
308.0,823.1239657889071
309.0,847.684609219765
310.0,880.0114905442847
311.0,1021.6945423383205
312.0,1138.464653188619
313.0,1240.9208316977076
314.0,1371.1149238082226
315.0,1563.5375019669482
316.0,1816.9959141126258
317.0,2047.2975172877327
318.0,2286.056208118698
319.0,2598.1089229836844
320.0,3060.0580274005106
321.0,3504.360881237198
322.0,4141.244946870782
323.0,4832.263502112606
324.0,5266.299858602941
325.0,5266.128610950142
326.0,4608.546030811421
327.0,3592.4701866539804
328.0,2535.835801018319
329.0,1734.807617461645
330.0,1267.8296056636598
331.0,879.838970019589
332.0,620.8553130080651
333.0,496.44290105178993
334.0,330.8197035157784
335.0,271.4227943215981
336.0,205.07299051538052
337.0,140.4174623458008
338.0,125.67649293581246
339.0,154.61360164064072
340.0,57.990234557159965
341.0,37.60101378443851
342.0,83.92812373158036
343.0,51.69724176744299
344.0,5.805178722845532
345.0,7.111990202168209
346.0,26.187123628506182
347.0,20.020749510885135
348.0,3.49552515719136
349.0,2.701327480634859
350.0,27.987484270619227
351.0,20.038313378818835
352.0,31.046809792444677
353.0,16.125749115277415
354.0,20.226521669101334
355.0,41.75254034451754
356.0,24.447382776683128
357.0,16.330816893801686
358.0,33.57089590100662
359.0,28.983411433944358
360.0,26.12116242973359
361.0,12.880017592268786
362.0,15.732537077265516
363.0,20.95710571869591
364.0,9.764453337585934
365.0,10.668678485093142
366.0,11.993282149197059
367.0,36.68771635508157
368.0,13.652147952286738
369.0,106.92651272433257
370.0,152.88920778244542
371.0,126.78201161912465
372.0,150.91024232631057
373.0,217.6090495471416
374.0,266.6901659471869
375.0,341.2713779535846
376.0,429.5101040598649
377.0,445.226302469808
378.0,564.7657858754311
379.0,682.2725808869474
380.0,793.3881330886836
381.0,917.2331073864335
382.0,1042.3971016347289
383.0,1118.9019083391654
384.0,1243.2605297381267
385.0,1417.2266249670831
386.0,1583.3178049705134
387.0,1690.8337079139758
388.0,1999.5681842745278
389.0,2351.8814186281725
390.0,2676.413687652986
391.0,3014.9958828063864
392.0,3489.897416034801
393.0,4077.1784001396595
394.0,4683.647806936587
395.0,5322.558559273105
396.0,5988.793751429278
397.0,6457.549614586783
398.0,6651.892651694646
399.0,6323.323459395388
400.0,5584.857517234595
401.0,4706.225424887732
402.0,3848.8571063329873
403.0,3050.522768666096
404.0,2421.7782542085
405.0,1959.6468307100074
406.0,1596.9825506801424
407.0,1250.5377673009266
408.0,1083.5123862576527
409.0,984.8721698363408
410.0,888.8929031232368
411.0,795.4766695122008
412.0,683.3037546812891
413.0,691.1316471563666
414.0,668.9310532269548
415.0,611.1836918958281
416.0,601.6478416107782
417.0,592.8461530094731
418.0,574.3619258116986
419.0,562.6807437838991
420.0,533.4724855556734
421.0,463.0181462560792
422.0,416.0337283318441
423.0,354.58163738238284
424.0,328.93911174524334
425.0,336.7343256234555
426.0,334.24548428581033
427.0,252.02850287507908
428.0,251.47565351054212
429.0,287.69079585001566
430.0,312.11887699558145
431.0,301.9405960789355
432.0,280.4264503119185
433.0,329.08135083117605
434.0,385.258851348835
435.0,420.8620322708913
436.0,479.1593285661843
437.0,680.7157956211332
438.0,746.4828858816359
439.0,823.6833549026938
440.0,967.9022833406168
441.0,1122.0785377479015
442.0,1174.1418105754224
443.0,1339.046329047391
444.0,1415.0348096248672
445.0,1342.3606336066914
446.0,1182.291413170308
447.0,1076.735130233086
448.0,861.4364137185819
449.0,658.0504097757413
450.0,499.54920653200475
451.0,393.73962900507485
452.0,366.0031221945673
453.0,213.00305214961753
454.0,115.81142483085853
455.0,112.80441503099314
456.0,132.17873183907426
457.0,85.4392222208128
458.0,60.75616451476316
459.0,96.23260041474146
460.0,84.85013493186686
461.0,14.322633734197057
462.0,7.832965012169285
463.0,34.92944829590694
464.0,22.124554042901728
465.0,22.794043313823387
466.0,33.99631313259188
467.0,0.27921230510241846
468.0,43.002503854286374
469.0,16.887889095509408
470.0,45.32676738782912
471.0,99.61819804908211
472.0,41.75648938799298
473.0,42.737230323033955
474.0,49.638256850121685
475.0,48.56765101105788
476.0,29.79112913751541
477.0,13.69778056737368
478.0,85.46098203783242
479.0,19.225969839152945
480.0,35.67464146097309
481.0,62.92238636131065
482.0,103.24969735359102
483.0,17.55329357224897
484.0,135.5696989481263
485.0,185.66445595428894
486.0,154.29631376401898
487.0,125.45730230875417
488.0,169.01459458445936
489.0,156.26669164060786
490.0,142.76173363901543
491.0,147.27288454086207
492.0,182.53375998486905
493.0,228.18797278033753
494.0,171.6056125341544
495.0,182.95050873708166
496.0,232.93860341858812
497.0,287.05417761698936
498.0,333.86337170089143
499.0,385.87900670263457
500.0,400.8098789372349
501.0,383.5957149929334
502.0,379.5901870893651
503.0,414.82981553503987
504.0,475.0405209126536
505.0,480.48253910524215
506.0,514.8711037815233
507.0,575.3247472063807
508.0,642.6817984164161
509.0,711.3103598210073
510.0,751.8752646796347
511.0,843.9576230846616
512.0,896.4444609619895
513.0,937.6305162132716
514.0,1066.115795885897
515.0,1208.5185632630094
516.0,1325.0267035391264
517.0,1452.5117809905566
518.0,1656.8997342629054
519.0,1949.7293822021263
520.0,2170.576967313341
521.0,2311.0464914699096
522.0,2501.750780691164
523.0,2713.7046206335085
524.0,2838.3123347316728
525.0,2793.9283620949514
526.0,2767.930278841109
527.0,2632.5270346967527
528.0,2421.0509003976035
529.0,2132.449284184404
530.0,1780.444172347969
531.0,1535.5082340336494
532.0,1324.2399547419657
533.0,1127.8056322778252
534.0,922.2361239670864
535.0,719.5099002322681
536.0,589.9705235026673
537.0,447.16902443738434
538.0,349.16589537544655
539.0,311.8192572329396
540.0,279.3174260735434
541.0,194.85409542807378
542.0,170.59133412820998
543.0,155.9596096369188
544.0,114.70021978178464
545.0,77.81274717963979
546.0,60.789202964172226
547.0,13.43721810415164
548.0,20.19104746133305
549.0,11.904008355227779
550.0,34.775407321491784
551.0,33.42913260526219
552.0,34.505313932643006
553.0,30.4036611918928
554.0,87.66644807615415
555.0,87.18454683960304
556.0,37.26034006090889
557.0,4.84468844363513
558.0,30.700405237477774
559.0,10.305689312611486
560.0,33.525999276132055
561.0,47.60298203135755
562.0,60.8696090582709
563.0,129.27767959319735
564.0,60.6061431475982
565.0,24.761775305191875
566.0,54.771400459898615
567.0,81.92342513451489
568.0,54.208584799916764
569.0,40.147503276794495
570.0,113.40947148706908
571.0,191.01380495822352
572.0,171.6690572216888
573.0,104.00472677706873
574.0,99.35502148312702
575.0,127.83932992480753
576.0,141.7600324360437
577.0,129.11560533600021
578.0,157.07928043017645
579.0,198.96955797790744
580.0,111.61323806080793
581.0,212.04715371536457
582.0,191.04051471358358
583.0,141.96392373698737
584.0,136.89413943785038
585.0,139.72918557416241
586.0,98.3738368831401
587.0,161.1058893897837
588.0,109.43780511185244
589.0,80.20021768991313
590.0,102.34534334767501
591.0,48.39979114762285
592.0,93.33099023687191
593.0,103.96524801718765
594.0,38.63713211838127
595.0,11.00006311448494
596.0,69.96295509652548
597.0,104.50662795798344
598.0,201.93990728415372
599.0,146.68829188236765
600.0,120.91349855455988
601.0,134.66400115327343
602.0,104.73051094986445
603.0,115.04412249169378
604.0,127.91184199383542
605.0,125.9096153422393
606.0,153.81338310451247
607.0,175.0631615617442
608.0,132.57933721309908
609.0,176.4797462456604
610.0,223.1531048336251
611.0,211.1803675179503
612.0,183.5616105687444
613.0,193.60271582708705
614.0,250.28158404786484
615.0,346.28225017233797
616.0,389.61932654537515
617.0,509.0398646615716
618.0,613.1037426033108
619.0,613.0811524145826
620.0,659.4415728082332
621.0,750.2222869517504
622.0,696.7186662103845
623.0,599.7433355354805
624.0,483.58130474423837
625.0,331.23522385612733
626.0,315.7507726384982
627.0,261.6392059099893
628.0,259.4704933197688
629.0,221.9938251411415
630.0,178.11541462827427
631.0,226.7604637015468
632.0,251.04323895609923
633.0,241.60130339313974
634.0,170.294648391225
635.0,170.47404138619376
636.0,222.76527863655866
637.0,191.71408224580298
638.0,250.74694251136611
639.0,160.8109283180424
640.0,65.88869695426746
641.0,43.35005832507709
642.0,51.3199556474679
643.0,17.799596851597492
644.0,2.8087848470578303
645.0,6.95791325577797
646.0,18.542068806987317
647.0,42.046714255002584
648.0,24.108315962367872
649.0,30.723017554973747
650.0,11.887213448760114
651.0,0.6589930458086991
652.0,25.088637428725143
653.0,51.60081657726088
654.0,64.16702331294564
655.0,78.95637559469515
656.0,186.2225257114765
657.0,133.71698169597218
658.0,125.84253804224527
659.0,163.64127954372577
660.0,194.02683009884672
661.0,256.1700553847169
662.0,353.3844946612778
663.0,423.5332304776188
664.0,527.1291893541622
665.0,641.9233562804817
666.0,765.3830239324894
667.0,964.7700126776167
668.0,1099.7209336329056
669.0,1290.378010322406
670.0,1557.2704912761174
671.0,1880.884854405778
672.0,2228.4727151353213
673.0,2608.045481854876
674.0,3213.0124881005045
675.0,3670.756978660414
676.0,4343.914244701648
677.0,5211.905358480651
678.0,6191.687833466013
679.0,7395.295526094952
680.0,8891.81513905784
681.0,10606.516342800762
682.0,12638.921301186358
683.0,15084.479368818835
684.0,17803.95808400298
685.0,20286.54425879852
686.0,21768.035039697203
687.0,21644.216156977054
688.0,19523.366065865794
689.0,16341.41102764289
690.0,13063.00309474542
691.0,10228.89071270993
692.0,7922.384412440724
693.0,6130.099571089993
694.0,5007.746119701995
695.0,4161.348541960915
696.0,3443.746228644067
697.0,2966.220815467068
698.0,2477.967572528396
699.0,2214.880675025202
700.0,1923.89184411729
701.0,1727.4039724070244
702.0,1598.3528696450137
703.0,1425.1691793717814
704.0,1305.5451183051002
705.0,1290.3514715692784
706.0,1115.9552397827533
707.0,939.6954770829373
708.0,831.3863840017849
709.0,744.2000849989813
710.0,619.7105346573524
711.0,579.036558660258
712.0,489.23481842364265
713.0,403.7402420764783
714.0,331.9374109561602
715.0,262.77169853549594
716.0,201.20370446318523
717.0,131.95775442057985
718.0,189.82539005131144
719.0,153.49115882689603
720.0,106.3310240131235
721.0,110.94805187456346
722.0,92.40387880890451
723.0,-0.21451717426688388
724.0,80.80839214583565
725.0,112.04961437687048
726.0,89.16257799108902
727.0,53.21993220550967
728.0,40.81978641480683
729.0,76.77772719030295
730.0,71.01713199086066
731.0,92.59819351084755
732.0,60.557462480013584
733.0,28.584742944806298
734.0,61.4462027826484
735.0,116.06117791696386
736.0,52.58260267335798
737.0,40.86177735961137
738.0,10.278159799307868
739.0,24.218326155477364
740.0,60.55633890639697
741.0,2.5774133524989455
742.0,17.682066585682968
743.0,41.83992043122168
744.0,1.7001050749206001
745.0,2.9570148389511535
746.0,41.81863188289024
747.0,47.19903940023248
748.0,94.20450975996958
749.0,113.94848742321854
750.0,98.50210828944172
751.0,55.90994621960884
752.0,122.98345925170025
753.0,51.97175017475066
754.0,20.361764257233943
755.0,151.22499077259675
756.0,182.94693808021376
757.0,242.50151372984118
758.0,269.2948461240889
759.0,274.3763827828388
760.0,292.7649364690554
761.0,308.9924293612843
762.0,340.7171559940974
763.0,321.23937336612323
764.0,359.2128540541805
765.0,421.91622994384284
766.0,428.01906191466884
767.0,385.70354941056905
768.0,460.9477618166169
769.0,519.6413588324806
770.0,497.6410266950643
771.0,482.8169001644955
772.0,473.19175815863673
773.0,433.1220674817634
774.0,369.15832566537625
775.0,317.9844346014271
776.0,406.6184387377715
777.0,380.94445621950973
778.0,363.4023012318604
779.0,359.33673461282376
780.0,301.70660753050225
781.0,282.8736970623628
782.0,229.74770199827782
783.0,250.9132181522624
784.0,272.8381006996387
785.0,239.25143835608586
786.0,181.53670406373067
787.0,172.83751748690253
788.0,192.35480816738706
789.0,163.57242439935507
790.0,141.52485073753297
791.0,157.38043942214563
792.0,166.78672277074241
793.0,140.15666475548892
794.0,117.3983193670579
795.0,144.35957754306844
796.0,123.85981716444687
797.0,106.05079826823454
798.0,103.70237282254078
799.0,86.82728749253056
800.0,53.38241434923437
801.0,96.33930176484985
802.0,145.9936341235125
803.0,148.435324511438
804.0,95.93452030386831
805.0,123.45294559849907
806.0,165.5451237243287
807.0,125.94350687598732
808.0,124.86546563023069
809.0,135.52355882053814
810.0,78.47379845807313
811.0,47.01779931989761
812.0,61.47521957250121
813.0,98.03758124549087
814.0,125.12258756166129
815.0,100.12068541597105
816.0,94.13485916245828
817.0,193.54361778975428
818.0,109.97591439435521
819.0,74.69734070174935
820.0,128.8567135314984
821.0,107.3844047479465
822.0,115.12820893438473
823.0,170.24559881113993
824.0,125.58586739738425
825.0,111.26378910047531
826.0,168.25445686987186
827.0,196.26143143294715
828.0,126.45503200126194
829.0,146.60453798646225
830.0,217.4933239562759
831.0,185.54282814955002
832.0,191.2199537866538
833.0,195.3035607989542
834.0,170.76814979293496
835.0,160.65551833416927
836.0,157.69524669212726
837.0,54.32239158616104
838.0,40.28713774084015
839.0,91.5969198209563
840.0,101.06612770147588
841.0,106.58074293654144
842.0,150.16322135898182
843.0,58.97101193795725
844.0,-1.6002507906296586
845.0,48.74848976581052
846.0,92.74471536300804
847.0,71.85075317812837
848.0,49.33603328115815
849.0,72.58542978808794
850.0,77.08081259755193
851.0,4.823457334831843
852.0,45.04195770117334
853.0,79.64292687086544
854.0,42.01593394758514
855.0,23.390479438081517
856.0,32.41415615243637
857.0,46.465454608641444
858.0,27.84471882845643
859.0,11.217033028279943
860.0,18.14968566137409
861.0,73.06737936922609
862.0,73.10450652114956
863.0,33.164968563990485
864.0,102.75072288849815
865.0,37.0531670625337
866.0,18.122550361186985
867.0,56.37102912214607
868.0,54.112177092588844
869.0,31.658449555149236
870.0,77.87226483080471
871.0,165.48529346312708
872.0,83.77108602621507
873.0,134.9475529578314
874.0,116.27851453847798
875.0,210.90970399710807
876.0,253.40440218574452
877.0,254.07908562088917
878.0,314.21167099222583
879.0,361.8653025383198
880.0,387.64670009050957
881.0,472.6104979614831
882.0,509.96509692990765
883.0,537.7022439162217
884.0,588.01129832929
885.0,638.9748641650348
886.0,647.4567411704015
887.0,631.3143565426918
888.0,722.0899341540394
889.0,628.6634635396899
890.0,682.1783663317125
891.0,715.993680223259
892.0,641.9368599328022
893.0,562.8588714733027
894.0,526.4187656263099
895.0,547.6893416814669
896.0,594.5240177794268
897.0,508.0735028398696
898.0,441.3386551289305
899.0,428.7353176398908
900.0,405.47387039745314
901.0,372.6819865885558
902.0,438.97689956133286
903.0,418.2226447357804
904.0,372.89933512547094
905.0,501.17933526792996
906.0,603.8284620196009
907.0,614.9672963351534
908.0,627.772251068056
909.0,642.6609734282825
910.0,679.9528682292238
911.0,771.8609844393452
912.0,791.7128768376
913.0,836.7866437019444
914.0,843.8140587108394
915.0,817.9226528289546
916.0,852.8990461042844
917.0,943.3932644704862
918.0,980.0424019250877
919.0,992.0104156428628
920.0,938.2949150620947
921.0,953.9445548097871
922.0,927.8703668819452
923.0,827.9064049676656
924.0,811.2460810062576
925.0,795.3420340088388
926.0,696.1747294123707
927.0,751.517584219671
928.0,595.5112141919026
929.0,540.4446124310705
930.0,585.6785370882203
931.0,574.4663556752274
932.0,558.5250164016525
933.0,543.3640897340913
934.0,505.49714596472586
935.0,457.74085904997594
936.0,412.6651778069985
937.0,388.29330437724127
938.0,377.8456605411268
939.0,361.96614062499077
940.0,332.1183549417483
941.0,295.10011929415896
942.0,292.5571439371705
943.0,232.45567373684977
944.0,274.12740127407966
945.0,223.80761815834254
946.0,166.43415012412135
947.0,206.43411847966718
948.0,157.45831717723414
949.0,69.97405699359405
950.0,55.52974843599231
951.0,56.716254542674
952.0,63.67595964568889
953.0,35.530543791419035
954.0,13.446942579133625
955.0,35.721836317699335
956.0,41.6782398121318
957.0,22.02840370638008
958.0,19.09726482195127
959.0,76.99527959078496
960.0,28.918925229923016
961.0,32.31166196780245
962.0,60.42236079582576
963.0,68.88832500993884
964.0,52.803761684593084
965.0,64.16868608478462
966.0,86.71626944338695
967.0,44.90779358222089
968.0,21.984001486736943
969.0,40.12928050585381
970.0,78.73809999596476
971.0,88.5929448681261
972.0,48.47193078981292
973.0,32.51897851298143
974.0,59.265500698804594
975.0,77.5732505192511
976.0,63.03648511408755
977.0,13.311839475080928
978.0,9.646456949543559
979.0,22.5046581431325
980.0,8.81803614881318
981.0,22.917091075877902
982.0,38.86463105460485
983.0,1.3594629747898959
984.0,54.534176128724134
985.0,172.6305529843645
986.0,135.87070532501107
987.0,133.7778725820141
988.0,294.9367068585472
989.0,353.96029524620496
990.0,356.0328944266055
991.0,505.66720411843664
992.0,570.8550296799035
993.0,703.8016623940337
994.0,865.2239403712234
995.0,958.2353239263562
996.0,1068.308829017367
997.0,1269.1839488146813
998.0,1386.8643697696427
999.0,1529.0503822669773
1000.0,1636.6028252486533
1001.0,1821.0659458753782
1002.0,2117.7678984163545
1003.0,2261.2440013007586
1004.0,2363.204405704646
1005.0,2559.896428473892
1006.0,2712.9773863854953
1007.0,2877.2221982715973
1008.0,2957.520923914315
1009.0,2994.1824455917144
1010.0,2985.8403389690957
1011.0,3015.0162827250797
1012.0,2991.7888974062166
1013.0,2812.250626950491
1014.0,2593.059710470366
1015.0,2517.372145239674
1016.0,2203.921113713524
1017.0,2018.797133794862
1018.0,1919.5539932017755
1019.0,1608.0535755826545
1020.0,1468.4403951405425
1021.0,1334.8945015449124
1022.0,1157.789953715735
1023.0,1083.390818826665
1024.0,859.9451188009069
1025.0,835.7085447837875
1026.0,693.7180190234199
1027.0,661.3518030565457
1028.0,574.6083677833897
1029.0,458.33312061710456
1030.0,394.46459636633296
1031.0,373.9317159529416
1032.0,329.49633505951294
1033.0,256.1357293627163
1034.0,288.7482898507337
1035.0,245.3250933277063
1036.0,198.16418419122766
1037.0,245.01125705869842
1038.0,316.85602947535614
1039.0,319.7874232382875
1040.0,338.6959994967396
1041.0,420.42982634727764
1042.0,395.6466164085715
1043.0,630.4908764359209
1044.0,634.8754355597357
1045.0,798.9252663362616
1046.0,903.3229090952445
1047.0,1045.1888584559542
1048.0,1267.5460539674702
1049.0,1530.8839886700762
1050.0,1785.7434479610117
1051.0,2000.3368175309724
1052.0,2397.158822940696
1053.0,2912.5391282493915
1054.0,3371.0311682538595
1055.0,3886.9521330221473
1056.0,4571.818996016057
1057.0,5303.861737547743
1058.0,6094.049352656599
1059.0,7011.924277287681
1060.0,7952.274062972963
1061.0,8964.758508436174
1062.0,10211.227591023413
1063.0,11339.712806562291
1064.0,12403.086618528268
1065.0,13354.892018806484
1066.0,14213.973490311542
1067.0,14780.571488001837
1068.0,14881.64715473719
1069.0,14582.361168740592
1070.0,14041.09652427419
1071.0,13417.542757614214
1072.0,12631.522850283822
1073.0,11640.154254950583
1074.0,10834.24788511273
1075.0,9971.613221342712
1076.0,9073.905787511616
1077.0,8265.420832308095
1078.0,7424.830484208462
1079.0,6481.206906741332
1080.0,5743.995282388755
1081.0,5189.406708594669
1082.0,4590.47664120876
1083.0,4082.417448973438
1084.0,3701.1865986528783
1085.0,3352.1529446440736
1086.0,3000.1979056674104
1087.0,2703.204599888822
1088.0,2453.1642597971686
1089.0,2143.715588093483
1090.0,1941.1556493432063
1091.0,1808.4645750615273
1092.0,1612.5511515871228
1093.0,1501.1697712398204
1094.0,1297.4830026047352
1095.0,1169.1973708602075
1096.0,1099.8624634093244
1097.0,973.1858288537043
1098.0,896.3489694086559
1099.0,846.0208275545948
1100.0,837.882684654017
1101.0,731.428861653086
1102.0,706.3365887887155
1103.0,721.7837145418024
1104.0,666.2253937662034
1105.0,639.2633539762584
1106.0,637.5234499672516
1107.0,615.3248541144095
1108.0,626.8513159425971
1109.0,600.661389652043
1110.0,650.7928052802697
1111.0,637.3901490170217
1112.0,594.1352582189007
1113.0,524.3604882754051
1114.0,474.16614954903315
1115.0,446.6135138845453
1116.0,449.1326619138081
1117.0,440.5417184027924
1118.0,354.84494216986195
1119.0,252.03786294894647
1120.0,236.81667264936738
1121.0,270.98425902620966
1122.0,210.70389008764286
1123.0,344.00879556106133
1124.0,364.4657314597021
1125.0,376.1975948957113
1126.0,420.20291890071934
1127.0,438.3039216893813
1128.0,501.1630874749318
1129.0,625.5175394362717
1130.0,610.5025000718504
1131.0,754.7366119062199
1132.0,729.6535250021977
1133.0,655.9805457093461
1134.0,695.5730338896932
1135.0,714.6275348849646
1136.0,661.2509518647305
1137.0,633.5739922879233
1138.0,606.6684648936873
1139.0,460.8877230042246
1140.0,430.6808863209155
1141.0,435.23571012226535
1142.0,367.61050393769233
1143.0,268.31072491314274
1144.0,226.0176552325384
1145.0,229.96732947756152
1146.0,135.88792587229284
1147.0,39.77019463665505
1148.0,38.13267518406602
1149.0,60.837039058693286
1150.0,55.47197027856198
1151.0,16.30011285120411
1152.0,36.705839599903754
1153.0,63.26878357097132
1154.0,17.358756267642764
1155.0,15.252651291176118
1156.0,86.91168207137193
1157.0,97.6408554059326
1158.0,57.41395557645517
1159.0,17.344032310023085
1160.0,51.68270146520453
1161.0,174.56633735251683
1162.0,57.346388731407664
1163.0,23.888141307007416
1164.0,80.82376689018038
1165.0,124.79397867120755
1166.0,21.596471571300043
1167.0,43.206369558115895
1168.0,70.02511039842861
1169.0,6.397941533607415
1170.0,12.740324018957212
1171.0,6.234487275758022
1172.0,115.70188629617883
1173.0,114.45794348356492
1174.0,129.8877018468869
1175.0,194.3017483121877
1176.0,232.5447210904237
1177.0,256.94008714471147
1178.0,291.5604457699488
1179.0,324.56653956257117
1180.0,371.11260705844194
1181.0,368.55601486397956
1182.0,314.7490786327851
1183.0,316.0425628840803
1184.0,269.463102335663
1185.0,196.1841217734161
1186.0,194.23934259671995
1187.0,248.4932
1188.0,169.48811356359096
1189.0,194.35231048995277
1190.0,222.86223738582677
1191.0,204.61586614240835
1192.0,188.64537628497902
1193.0,192.8842900458494
1194.0,183.35933568983393
1195.0,155.24500282136304
1196.0,187.25892444789687
1197.0,112.10940158033034
1198.0,218.92807693789706
1199.0,235.11915255662288
1200.0,182.1294359902924
1201.0,212.35112909565757
1202.0,167.84185520961782
1203.0,124.5712808324484
1204.0,203.09852034549337
1205.0,276.5036985802122
1206.0,223.62133535631943
1207.0,210.91679840573968
1208.0,270.6787609395026
1209.0,224.29298423440557
1210.0,325.62731004979923
1211.0,312.03508276025246
1212.0,336.01375707243295
1213.0,379.0288542615939
1214.0,398.07970346014577
1215.0,369.4826869902883
1216.0,371.6637505663512
1217.0,399.56167347680787
1218.0,333.57781678390774
1219.0,281.0270304768272
1220.0,450.6348415855586
1221.0,429.834300852131
1222.0,383.46950439391753
1223.0,490.834268430953
1224.0,474.93150548701
1225.0,481.1946542497557
1226.0,501.11472493451384
1227.0,484.2880269822888
1228.0,415.8872781810557
1229.0,430.4775241438903
1230.0,539.7750931863125
1231.0,527.4170276901016
1232.0,551.4641732253012
1233.0,566.909256962467
1234.0,539.8404944766085
1235.0,544.0297438075972
1236.0,527.216155695394
1237.0,527.8298211303589
1238.0,464.9924035599372
1239.0,470.06196264591244
1240.0,426.13502250019746
1241.0,360.6857635891353
1242.0,360.36943528910757
1243.0,345.78235044441885
1244.0,355.73933965814336
1245.0,445.6132683399133
1246.0,444.57753919988613
1247.0,340.71983802626943
1248.0,355.4285075685972
1249.0,346.9745811224459
1250.0,309.42937968107583
1251.0,338.50740701243933
1252.0,284.34879188113047
1253.0,194.59081296450037
1254.0,134.3884794428642
1255.0,159.06892711364296
1256.0,225.20455256173196
1257.0,152.96183172778902
1258.0,130.96397861139553
1259.0,151.88151339020277
1260.0,154.46584464396048
1261.0,69.89070743150624
1262.0,71.15503592174068
1263.0,150.72671846908284
1264.0,96.69271745132097
1265.0,20.62179273796795
1266.0,41.661601139719096
1267.0,24.269026853024606
1268.0,91.82131293287219
1269.0,125.1968147114677
1270.0,176.59560761288296
1271.0,236.2605841086236
1272.0,115.17615705133846
1273.0,198.26516812509504
1274.0,219.92101942208694
1275.0,98.10277958582793
1276.0,120.18805838904274
1277.0,98.93800259850984
1278.0,162.26330230589713
1279.0,138.3012626037977
1280.0,120.60941614177507
1281.0,164.447142654442
1282.0,166.16564263773475
1283.0,162.42518006742384
1284.0,140.39720800864688
1285.0,60.515283176849174
1286.0,137.38145966772856
1287.0,155.98833397484051
1288.0,70.72746840657044
1289.0,82.2291504200582
1290.0,60.733955680671194
1291.0,113.77092015642287
1292.0,92.85041801565838
1293.0,22.14214078786435
1294.0,8.498369643335828
1295.0,5.448220115511521
1296.0,12.943794501731531
1297.0,15.420295966966297
1298.0,6.149994584647551
1299.0,15.629369122471596
1300.0,47.20866888096947
1301.0,0.0
1302.0,0.0
1303.0,0.0
1304.0,0.0
1305.0,0.0
1306.0,0.0
1307.0,0.0
1308.0,0.0
1309.0,0.0
1310.0,0.0
1311.0,0.0
1312.0,0.0
1313.0,0.0
1314.0,0.0
1315.0,0.0
1316.0,0.0
1317.0,0.0
1318.0,0.0
1319.0,0.0
1320.0,0.0
1321.0,0.0
1322.0,0.0
1323.0,0.0
1324.0,0.0
1325.0,0.0
1326.0,0.0
1327.0,0.0
1328.0,0.0
1329.0,0.0
1330.0,0.0
1331.0,0.0
1332.0,0.0
1333.0,0.0
1334.0,0.0
1335.0,0.0
1336.0,0.0
1337.0,0.0
1338.0,0.0
1339.0,0.0
1340.0,0.0
1341.0,0.0
1342.0,0.0
1343.0,0.0
1344.0,0.0
1345.0,0.0
1346.0,0.0
1347.0,0.0
1348.0,0.0
1349.0,0.0
1350.0,0.0
1351.0,0.0
1352.0,0.0
1353.0,0.0
1354.0,0.0
1355.0,0.0
1356.0,0.0
1357.0,0.0
1358.0,0.0
1359.0,0.0
1360.0,0.0
1361.0,0.0
1362.0,0.0
1363.0,0.0
1364.0,0.0
1365.0,0.0
1366.0,0.0
1367.0,0.0
1368.0,0.0
1369.0,0.0
1370.0,0.0
1371.0,0.0
1372.0,0.0
1373.0,0.0
1374.0,0.0
1375.0,0.0
1376.0,0.0
1377.0,0.0
1378.0,0.0
1379.0,0.0
1380.0,0.0
1381.0,0.0
1382.0,0.0
1383.0,0.0
1384.0,0.0
1385.0,0.0
1386.0,0.0
1387.0,0.0
1388.0,0.0
1389.0,0.0
1390.0,0.0
1391.0,0.0
1392.0,0.0
1393.0,0.0
1394.0,0.0
1395.0,0.0
1396.0,0.0
1397.0,0.0
1398.0,0.0
1399.0,0.0
1400.0,0.0
1401.0,0.0
1402.0,0.0
1403.0,0.0
1404.0,0.0
1405.0,0.0
1406.0,0.0
1407.0,0.0
1408.0,0.0
1409.0,0.0
1410.0,0.0
1411.0,0.0
1412.0,0.0
1413.0,0.0
1414.0,0.0
1415.0,0.0
1416.0,0.0
1417.0,0.0
1418.0,0.0
1419.0,0.0
1420.0,0.0
1421.0,0.0
1422.0,0.0
1423.0,0.0
1424.0,0.0
1425.0,0.0
1426.0,0.0
1427.0,0.0
1428.0,0.0
1429.0,0.0
1430.0,0.0
1431.0,0.0
1432.0,0.0
1433.0,0.0
1434.0,0.0
1435.0,0.0
1436.0,0.0
1437.0,0.0
1438.0,0.0
1439.0,0.0
1440.0,0.0
1441.0,0.0
1442.0,0.0
1443.0,0.0
1444.0,0.0
1445.0,0.0
1446.0,0.0
1447.0,0.0
1448.0,0.0
1449.0,0.0
1450.0,0.0
1451.0,0.0
1452.0,0.0
1453.0,0.0
1454.0,0.0
1455.0,0.0
1456.0,0.0
1457.0,0.0
1458.0,0.0
1459.0,0.0
1460.0,0.0
1461.0,0.0
1462.0,0.0
1463.0,0.0
1464.0,0.0
1465.0,0.0
1466.0,0.0
1467.0,0.0
1468.0,0.0
1469.0,0.0
1470.0,0.0
1471.0,0.0
1472.0,0.0
1473.0,0.0
1474.0,0.0
1475.0,0.0
1476.0,0.0
1477.0,0.0
1478.0,0.0
1479.0,0.0
1480.0,0.0
1481.0,0.0
1482.0,0.0
1483.0,0.0
1484.0,0.0
1485.0,0.0
1486.0,0.0
1487.0,0.0
1488.0,0.0
1489.0,0.0
1490.0,0.0
1491.0,0.0
1492.0,0.0
1493.0,0.0
1494.0,0.0
1495.0,0.0
1496.0,0.0
1497.0,0.0
1498.0,0.0
1499.0,0.0
1500.0,0.0
1501.0,0.0
1502.0,0.0
1503.0,0.0
1504.0,0.0
1505.0,0.0
1506.0,0.0
1507.0,0.0
1508.0,0.0
1509.0,0.0
1510.0,0.0
1511.0,0.0
1512.0,0.0
1513.0,0.0
1514.0,0.0
1515.0,0.0
1516.0,0.0
1517.0,0.0
1518.0,0.0
1519.0,0.0
1520.0,0.0
1521.0,0.0
1522.0,0.0
1523.0,0.0
1524.0,0.0
1525.0,0.0
1526.0,0.0
1527.0,0.0
1528.0,0.0
1529.0,0.0
1530.0,0.0
1531.0,0.0
1532.0,0.0
1533.0,0.0
1534.0,0.0
1535.0,0.0
1536.0,0.0
1537.0,0.0
1538.0,0.0
1539.0,0.0
1540.0,0.0
1541.0,0.0
1542.0,0.0
1543.0,0.0
1544.0,0.0
1545.0,0.0
1546.0,0.0
1547.0,0.0
1548.0,0.0
1549.0,0.0
1550.0,0.0
1551.0,0.0
1552.0,0.0
1553.0,0.0
1554.0,0.0
1555.0,0.0
1556.0,0.0
1557.0,0.0
1558.0,0.0
1559.0,0.0
1560.0,0.0
1561.0,0.0
1562.0,0.0
1563.0,0.0
1564.0,0.0
1565.0,0.0
1566.0,0.0
1567.0,0.0
1568.0,0.0
1569.0,0.0
1570.0,0.0
1571.0,0.0
1572.0,0.0
1573.0,0.0
1574.0,0.0
1575.0,0.0
1576.0,0.0
1577.0,0.0
1578.0,0.0
1579.0,0.0
1580.0,0.0
1581.0,0.0
1582.0,0.0
1583.0,0.0
1584.0,0.0
1585.0,0.0
1586.0,0.0
1587.0,0.0
1588.0,0.0
1589.0,0.0
1590.0,0.0
1591.0,0.0
1592.0,0.0
1593.0,0.0
1594.0,0.0
1595.0,0.0
1596.0,0.0
1597.0,0.0
1598.0,0.0
1599.0,0.0
