0.0,0.0
1.0,0.0
2.0,0.0
3.0,0.0
4.0,0.0
5.0,0.0
6.0,0.0
7.0,0.0
8.0,0.0
9.0,0.0
10.0,0.0
11.0,0.0
12.0,0.0
13.0,0.0
14.0,0.0
15.0,0.0
16.0,0.0
17.0,0.0
18.0,0.0
19.0,0.0
20.0,0.0
21.0,0.0
22.0,0.0
23.0,0.0
24.0,0.0
25.0,0.0
26.0,0.0
27.0,0.0
28.0,0.0
29.0,0.0
30.0,0.0
31.0,0.0
32.0,0.0
33.0,0.0
34.0,0.0
35.0,0.0
36.0,0.0
37.0,0.0
38.0,0.0
39.0,0.0
40.0,0.0
41.0,0.0
42.0,0.0
43.0,0.0
44.0,0.0
45.0,0.0
46.0,0.0
47.0,0.0
48.0,0.0
49.0,0.0
50.0,0.0
51.0,0.0
52.0,0.0
53.0,0.0
54.0,0.0
55.0,0.0
56.0,0.0
57.0,0.0
58.0,0.0
59.0,0.0
60.0,0.0
61.0,0.0
62.0,0.0
63.0,0.0
64.0,0.0
65.0,0.0
66.0,0.0
67.0,0.0
68.0,0.0
69.0,0.0
70.0,0.0
71.0,0.0
72.0,0.0
73.0,0.0
74.0,0.0
75.0,0.0
76.0,0.0
77.0,0.0
78.0,0.0
79.0,0.0
80.0,0.0
81.0,0.0
82.0,0.0
83.0,0.0
84.0,0.0
85.0,0.0
86.0,0.0
87.0,0.0
88.0,0.0
89.0,0.0
90.0,0.0
91.0,0.0
92.0,0.0
93.0,0.0
94.0,0.0
95.0,0.0
96.0,0.0
97.0,0.0
98.0,0.0
99.0,0.0
100.0,0.0
101.0,0.0
102.0,0.0
103.0,0.0
104.0,0.0
105.0,0.0
106.0,0.0
107.0,0.0
108.0,0.0
109.0,0.0
110.0,0.0
111.0,0.0
112.0,0.0
113.0,0.0
114.0,0.0
115.0,0.0
116.0,0.0
117.0,0.0
118.0,0.0
119.0,0.0
120.0,0.0
121.0,0.0
122.0,0.0
123.0,0.0
124.0,0.0
125.0,0.0
126.0,0.0
127.0,0.0
128.0,0.0
129.0,0.0
130.0,12.781674310519247
131.0,0.03140771285710919
132.0,8.633906128799596
133.0,23.08288657344822
134.0,32.309246776695716
135.0,39.41670627442601
136.0,45.83141192507254
137.0,52.68412680065245
138.0,59.81848465006214
139.0,62.07431618702745
140.0,58.15232969980821
141.0,51.20472008468424
142.0,44.396543601334834
143.0,40.72950469576589
144.0,39.05211008263233
145.0,38.74051469871648
146.0,38.704487499708854
147.0,32.61892030198218
148.0,29.848273214067532
149.0,26.24581889826617
150.0,19.991145364586988
151.0,20.451689851253636
152.0,21.133779857846974
153.0,14.347679105893533
154.0,9.724366575980588
155.0,9.167409316429367
156.0,6.520969225640441
157.0,2.6072621878919358
158.0,2.527340471822206
159.0,2.402994294383338
160.0,3.117942853805225
161.0,3.1100868341874084
162.0,2.0721618367610675
163.0,1.16239743576125
164.0,0.75183151387033
165.0,2.0103535383280504
166.0,7.249782261462843
167.0,4.979283755768836
168.0,3.3160946572565466
169.0,4.123038811801384
170.0,8.542471370838228
171.0,7.192433542438273
172.0,4.209135063895076
173.0,5.854634256964213
174.0,7.673636763278024
175.0,8.736444711214643
176.0,9.143813953132364
177.0,9.480758066111969
178.0,10.550218830020698
179.0,11.885143302355605
180.0,14.41666255860964
181.0,16.615289298231502
182.0,15.609735776238125
183.0,12.219216986204236
184.0,14.117610760534928
185.0,15.501725974063161
186.0,10.976581074438384
187.0,10.675883641562834
188.0,15.122393788475266
189.0,15.775249319292573
190.0,11.5130627331943
191.0,11.031122678499527
192.0,11.777126014865162
193.0,9.045248463452477
194.0,5.680095819975548
195.0,6.550084776169104
196.0,4.907881813452237
197.0,5.354490512407459
198.0,4.396132909946262
199.0,0.6422356803114262
200.0,1.3914031127016366
201.0,1.31521120117384
202.0,0.608730532041552
203.0,0.32131844306845014
204.0,1.2926210705420078
205.0,3.52365169539682
206.0,5.474560921972996
207.0,2.7506033513182366
208.0,0.34526865876092494
209.0,2.9501841967825344
210.0,5.408768421992956
211.0,5.29835765199905
212.0,3.0832424063369026
213.0,0.4602509040803969
214.0,2.9074567656191608
215.0,5.178940165263925
216.0,6.721625817309501
217.0,8.143297789775264
218.0,7.2403571258648665
219.0,7.78626770422169
220.0,9.273243239874551
221.0,9.455568323608576
222.0,5.177063087235575
223.0,6.645397523124889
224.0,6.000989283456011
225.0,4.342519879533214
226.0,4.8361406479050375
227.0,5.348286650424808
228.0,7.671573524990029
229.0,9.320363020055215
230.0,9.227398450127737
231.0,8.653888534532273
232.0,10.531708920516051
233.0,12.898705336990647
234.0,13.841437395441082
235.0,12.974222756580394
236.0,14.873137924061387
237.0,9.458858090261076
238.0,10.662961297412064
239.0,18.462088414903853
240.0,19.342310993749344
241.0,19.193504684350994
242.0,20.39881279818999
243.0,21.91323905398135
244.0,22.629736995638353
245.0,23.551165347398676
246.0,25.075318118117607
247.0,27.313226464773816
248.0,28.941491170496477
249.0,27.85307481888234
250.0,27.588450996313092
251.0,29.165829222374512
252.0,31.07590606831783
253.0,32.07616095583879
254.0,31.922159700755156
255.0,20.963302755925184
256.0,12.229136784477923
257.0,8.104258523191708
258.0,4.152109410941207
259.0,0.6860271191548655
260.0,1.4886016174058012
261.0,0.5076127909777315
262.0,0.9568434688812364
263.0,3.423879475072793
264.0,1.9722468983164538
265.0,0.650807503807934
266.0,2.7755427946688864
267.0,4.327195635888272
268.0,0.8018952750051657
269.0,1.5584590700245813
270.0,5.856771850123828
271.0,7.538615210321514
272.0,0.31448992759404737
273.0,5.158447568897434
274.0,8.948671190242015
275.0,9.470873139059377
276.0,8.657832375218126
277.0,7.8138409680222045
278.0,12.75743483596775
279.0,16.577621160757346
280.0,18.298732153135077
281.0,20.132841112467258
282.0,19.78696554944204
283.0,21.10163626438597
284.0,22.793216619699557
285.0,23.95854407909308
286.0,25.09934513188495
287.0,26.026493670301118
288.0,31.884644449511246
289.0,37.226234897481596
290.0,38.234222744709605
291.0,41.6457297777768
292.0,38.83879988320138
293.0,41.28123102268132
294.0,48.20630080465411
295.0,50.752655138826
296.0,48.005077718867824
297.0,51.89573636977939
298.0,53.45536135241535
299.0,51.12145604490655
300.0,53.49130381194171
301.0,56.6021136231722
302.0,57.76140976168948
303.0,60.50821412671709
304.0,65.66452634197611
305.0,67.48716853239992
306.0,77.60107640176602
307.0,83.21582027627746
308.0,86.78021804581266
309.0,95.40565837513648
310.0,104.16853108728388
311.0,109.69479924507232
312.0,121.03080667060075
313.0,135.28196042982424
314.0,143.80939168636388
315.0,152.3200607562035
316.0,171.4452277433422
317.0,191.9766692062158
318.0,211.7660509882428
319.0,240.49539375429308
320.0,272.5220567608927
321.0,301.92027982650984
322.0,321.85010058023397
323.0,327.76738950515374
324.0,318.6453475934247
325.0,283.85548146185016
326.0,229.80974107732828
327.0,171.01253668452162
328.0,122.56903510484044
329.0,90.1213452415171
330.0,65.05058836478436
331.0,44.56536403962347
332.0,31.172577431158597
333.0,29.34725404368161
334.0,20.830763667251478
335.0,12.258351637314236
336.0,9.335186907710057
337.0,10.495446826779123
338.0,6.274368927847418
339.0,3.994402179001755
340.0,2.241593111357906
341.0,0.39045418903811313
342.0,1.436838717063951
343.0,1.6271157484722285
344.0,0.6131983049667106
345.0,3.77982339075721
346.0,3.6052248702282115
347.0,0.11579438181913596
348.0,0.15565055917672466
349.0,0.5908640452706805
350.0,0.7739951844517633
351.0,1.1019782584824989
352.0,0.962657141919806
353.0,1.766873749741418
354.0,2.137932683982727
355.0,1.1796241762370283
356.0,0.8756374125506431
357.0,1.8874204560057466
358.0,2.889972461989163
359.0,3.148084178334102
360.0,3.349472819831881
361.0,2.7115000233389357
362.0,0.2586167034217834
363.0,1.2800039793833642
364.0,3.1648663228718874
365.0,3.6873909579951323
366.0,3.2018856375792777
367.0,3.8294882180130565
368.0,7.351967127511909
369.0,6.637549773671097
370.0,7.870292602025035
371.0,11.509603993535057
372.0,10.22704285962561
373.0,14.821370305328703
374.0,20.475538180588583
375.0,23.7322854211509
376.0,24.195490767441875
377.0,26.373576100453587
378.0,36.677084919538096
379.0,46.65895643886955
380.0,53.742287050612745
381.0,59.21297169614853
382.0,65.79695368155629
383.0,74.39235655647055
384.0,83.8349201333278
385.0,91.06953748345063
386.0,97.7272834414057
387.0,111.38710945486368
388.0,118.54021952855405
389.0,132.5062221643812
390.0,148.29243368472552
391.0,161.90982261389553
392.0,181.8773852661671
393.0,202.91362515993032
394.0,222.50786670315284
395.0,238.19590459921824
396.0,248.99856869728677
397.0,256.29648777263753
398.0,251.58765653396446
399.0,230.78758921145214
400.0,199.38040548266196
401.0,165.21889946169344
402.0,136.91380185999222
403.0,116.5102747042935
404.0,93.33980306858662
405.0,72.84438830537897
406.0,59.35800349047068
407.0,46.39273743754463
408.0,40.80165539639962
409.0,34.68426934774417
410.0,27.996307662654758
411.0,24.26089101772241
412.0,25.40419120376026
413.0,23.315223545451676
414.0,19.60720699617463
415.0,18.21159075257786
416.0,19.27622820165093
417.0,18.498476559659192
418.0,22.1785603437864
419.0,23.953379086748505
420.0,24.349283807315633
421.0,24.764450758444024
422.0,24.653198134147814
423.0,24.962563088071377
424.0,23.433133886137178
425.0,19.37990831603061
426.0,14.946667739731303
427.0,14.337839882974004
428.0,15.116928791858149
429.0,11.182917880030901
430.0,12.566413768688868
431.0,19.04127038862634
432.0,16.541004344018138
433.0,16.009054880778894
434.0,18.64625312977312
435.0,21.098373028366385
436.0,23.380396578511903
437.0,27.974688292630443
438.0,32.55438836960185
439.0,35.36548852665028
440.0,39.85071640108159
441.0,44.70137941899112
442.0,46.80789263031674
443.0,49.905629771480164
444.0,53.21019808639822
445.0,57.03293341626373
446.0,59.94850899456591
447.0,60.495742153307724
448.0,60.406109079788116
449.0,56.173554084440916
450.0,51.48731456634805
451.0,46.50670150389899
452.0,40.68960702621968
453.0,36.2021292198068
454.0,30.807293924382478
455.0,22.50524159632885
456.0,19.050426815037003
457.0,20.943238613859553
458.0,14.992983832344029
459.0,10.873107278830755
460.0,9.724301109309721
461.0,9.713640964821526
462.0,8.293140697521
463.0,4.1329688021441155
464.0,1.811752133374887
465.0,2.721751612311827
466.0,3.7089750291808636
467.0,3.3316624340927445
468.0,1.7288935279626205
469.0,2.9611164116830513
470.0,2.468630599494583
471.0,1.2449312353081061
472.0,1.0117702943911286
473.0,0.8335386461057455
474.0,0.7109678594770004
475.0,1.051834837005514
476.0,0.6818597423592442
477.0,1.0597791053069856
478.0,1.0074442558047265
479.0,1.5373112113909466
480.0,0.30604715465493254
481.0,0.5619462593670234
482.0,1.1213339870320076
483.0,2.8761535343693616
484.0,0.5306255176015965
485.0,1.323273190353278
486.0,2.9903192359514863
487.0,1.1469523696616155
488.0,0.5901768955262058
489.0,0.9401800758058438
490.0,-0.04046252346792885
491.0,3.2261740992798362
492.0,2.9033568283066526
493.0,0.03007280967346849
494.0,0.47599470907100144
495.0,3.4615086021148533
496.0,4.030849210527649
497.0,1.0033060481862826
498.0,0.8784366887053259
499.0,4.296584946974441
500.0,5.297739941121567
501.0,7.038068333296899
502.0,11.835043068510357
503.0,10.457121291930354
504.0,5.821410339430149
505.0,7.14615385132387
506.0,11.745559916594427
507.0,12.938065473374115
508.0,14.600238639441033
509.0,15.99590508038179
510.0,17.725383018414156
511.0,25.02271425411409
512.0,25.320533170041067
513.0,28.9352915243171
514.0,34.21214367787762
515.0,38.84649673960618
516.0,43.476359080675294
517.0,45.945258601805776
518.0,47.64308387217883
519.0,53.12288833721467
520.0,59.803948736501916
521.0,64.55138093379283
522.0,71.01041990319895
523.0,74.6024606688137
524.0,78.46016792549648
525.0,78.62127975936963
526.0,76.40294912235717
527.0,78.93021804813644
528.0,80.08315378541089
529.0,75.74636762507456
530.0,69.14063283680895
531.0,64.06987496523566
532.0,61.566756065415504
533.0,58.8286471421206
534.0,55.57790666242325
535.0,51.90232668514514
536.0,47.18265080063109
537.0,42.83251250491117
538.0,42.13746794412509
539.0,34.89203913299043
540.0,28.8142103322871
541.0,28.717953762514384
542.0,29.078868451213737
543.0,23.846603341400215
544.0,19.053060467672022
545.0,18.284582676773013
546.0,18.060292258880324
547.0,17.299039736246847
548.0,15.153370939356698
549.0,11.219053669740884
550.0,9.010430556630256
551.0,14.149269856731268
552.0,12.896108839703542
553.0,6.800719559851857
554.0,4.41567091139307
555.0,6.540240026110917
556.0,8.333891997193486
557.0,5.300317278476796
558.0,2.6570062825120404
559.0,3.571387080306546
560.0,5.934704761492045
561.0,6.112861870106157
562.0,0.6604592043061895
563.0,2.019543703695179
564.0,6.358912333451887
565.0,6.100030775898395
566.0,3.9919776658455697
567.0,7.310187917106228
568.0,3.3728125244598774
569.0,1.956015756196993
570.0,4.395160307979418
571.0,5.043983279265989
572.0,6.342237114571681
573.0,4.201408216417391
574.0,9.690435480676804
575.0,12.802993292560277
576.0,10.248214264796783
577.0,10.116490797818502
578.0,11.06444008761629
579.0,9.76904925117847
580.0,7.8216303269397125
581.0,9.446925494061093
582.0,12.882395376718977
583.0,8.426631127273215
584.0,5.9822561019123
585.0,5.024459534415779
586.0,4.345282207536633
587.0,3.8906302641733985
588.0,3.860461805282155
589.0,3.943879089814548
590.0,0.14078076676682053
591.0,0.7411152431391677
592.0,0.512375446682336
593.0,0.8690195575273407
594.0,1.0313962147133782
595.0,2.4034060775345942
596.0,5.910327107570756
597.0,4.43974801536078
598.0,0.6199203182615673
599.0,1.1940441448696941
600.0,1.276188115687568
601.0,3.239835146766593
602.0,0.7761128179979483
603.0,0.17044012362070932
604.0,2.2888658313223615
605.0,1.3655472720330608
606.0,4.874416294718685
607.0,2.8362426760968265
608.0,0.39620257693679983
609.0,2.4758158979021383
610.0,5.705803168912583
611.0,4.537913290255918
612.0,8.132689661988433
613.0,8.602425321265592
614.0,12.836016443106296
615.0,17.691713085392532
616.0,20.446137836899325
617.0,21.41700546595729
618.0,23.793651335193417
619.0,28.097756090437297
620.0,31.159964171547333
621.0,30.344590091817444
622.0,29.015680656249216
623.0,29.726585252214573
624.0,22.016003988400296
625.0,13.60494954741821
626.0,10.052702461379946
627.0,8.789240343861115
628.0,6.432023610776568
629.0,3.2520393615820535
630.0,5.361014708212645
631.0,3.1200526454417594
632.0,2.7337749332886148
633.0,2.2846766918630457
634.0,1.3944877151790998
635.0,3.06794134383806
636.0,3.815851405215548
637.0,1.237209489662891
638.0,0.5542599981584045
639.0,3.912240062781244
640.0,5.063931138389689
641.0,3.2131786014211
642.0,2.850560099401858
643.0,0.8286957816014697
644.0,2.2414470998803715
645.0,4.587927608764363
646.0,6.6530830855518435
647.0,9.648699286899861
648.0,2.5269374884449207
649.0,3.566004831965663
650.0,4.320524710092719
651.0,7.156548910034747
652.0,10.150794231685882
653.0,7.034009887285256
654.0,12.950063120621145
655.0,14.10180923900155
656.0,16.91436051278434
657.0,23.04405091426166
658.0,28.635233182858475
659.0,29.356557020549523
660.0,33.86891874917982
661.0,40.78259642225684
662.0,49.74073341982393
663.0,55.642898766960656
664.0,61.016818683309445
665.0,73.36449498303418
666.0,88.86306767722415
667.0,103.51143948189004
668.0,120.05510381922016
669.0,147.6282137299672
670.0,181.38147162304568
671.0,212.5757825856598
672.0,253.0626865825491
673.0,298.8817599577448
674.0,340.98195933188
675.0,391.4669653974539
676.0,451.2843827290053
677.0,516.6680529706373
678.0,597.081846849778
679.0,692.3401700642048
680.0,800.7034912231807
681.0,918.434073265318
682.0,1035.0570588941112
683.0,1138.2834901358594
684.0,1217.8979442741897
685.0,1254.796262077516
686.0,1220.7915335310815
687.0,1112.8679465064145
688.0,951.9881560793382
689.0,770.4293913110839
690.0,606.3485263794215
691.0,473.8278463179154
692.0,373.49719291935924
693.0,296.25309781513033
694.0,241.0175930282003
695.0,200.5121665389253
696.0,163.6998597864418
697.0,143.4595789323711
698.0,123.57088651121485
699.0,105.57750307974419
700.0,90.89492024096242
701.0,79.43981398818002
702.0,69.72346041453238
703.0,60.409723520028486
704.0,52.58856233166285
705.0,51.787413450511
706.0,47.17993879762587
707.0,37.3819421870491
708.0,29.058459639976377
709.0,28.032320606627106
710.0,25.815995033873197
711.0,21.245186552289873
712.0,21.881095518412504
713.0,20.252122688432113
714.0,14.980614732354207
715.0,14.219294342964403
716.0,9.455482080832006
717.0,9.551290487539042
718.0,9.495748930345137
719.0,8.454415429081468
720.0,7.480413203198083
721.0,7.008214255340574
722.0,6.420246246354437
723.0,3.932634328297029
724.0,0.3652398780313789
725.0,2.150758848450555
726.0,3.991627311682768
727.0,2.3782652869702106
728.0,3.1955208032108278
729.0,3.8443831857035757
730.0,4.667278056408437
731.0,2.1987124720685065
732.0,-0.007888847849697556
733.0,1.8221238371225188
734.0,3.777900443125482
735.0,1.8794668738123859
736.0,0.17522411846257138
737.0,1.6852879758151085
738.0,0.7625657611406123
739.0,1.2095513870273429
740.0,2.575053495943557
741.0,1.9692447944444176
742.0,2.587039234735024
743.0,3.1799525357176304
744.0,1.2954344896868548
745.0,0.7292010829881866
746.0,1.2111713104312345
747.0,0.025016175417920228
748.0,2.1385188635899
749.0,2.3147258317639414
750.0,1.3434880424509534
751.0,2.4268770051827784
752.0,3.6910136219456446
753.0,4.17102001018779
754.0,6.2829143960703036
755.0,8.192986574529208
756.0,2.125489849701802
757.0,3.590745882398124
758.0,6.017439144093036
759.0,7.519213216955323
760.0,10.238851998947638
761.0,10.357538869042207
762.0,13.918258137006113
763.0,17.234209305577345
764.0,17.449696765929204
765.0,16.47153312939214
766.0,16.455601949873817
767.0,17.638511439161032
768.0,17.829817257172497
769.0,14.547758458650053
770.0,12.68004691240125
771.0,12.1597640051508
772.0,11.323842917613685
773.0,11.234450448624898
774.0,13.440356158643858
775.0,9.545471445825182
776.0,7.440548060823786
777.0,7.8198201877894595
778.0,6.700464141316383
779.0,4.5732197105066446
780.0,3.788501689622643
781.0,3.755358338955755
782.0,2.960352536769455
783.0,3.1321027120831717
784.0,5.323398629121266
785.0,7.685528840574456
786.0,6.19130697303943
787.0,1.9155777097752136
788.0,3.1590044730383804
789.0,3.2976531667689986
790.0,3.2398028806537336
791.0,0.38100969746190433
792.0,1.8738568723850832
793.0,7.918793062023589
794.0,5.529505542600313
795.0,5.856326980986683
796.0,5.046259549336741
797.0,3.185267422000483
798.0,1.4587733159905596
799.0,0.7500233974519702
800.0,1.259772787607519
801.0,2.6367496456736106
802.0,2.4935530173276685
803.0,0.7942021446571248
804.0,3.5779370306024783
805.0,2.116110486945498
806.0,1.380135027884514
807.0,4.115635386128794
808.0,5.035645218964103
809.0,1.2574639746072604
810.0,5.794494406644606
811.0,2.8851312830259133
812.0,0.14124110047112418
813.0,1.2966494663237054
814.0,2.246522394276149
815.0,0.2773047680592158
816.0,0.9441392156587222
817.0,2.363239400512745
818.0,0.4778608577227528
819.0,0.7404661632840231
820.0,0.8225425681791588
821.0,2.4529001306909235
822.0,1.0801427315823917
823.0,1.5003459595927278
824.0,3.851237871387027
825.0,4.320078296883513
826.0,6.025654686060621
827.0,4.131053649749434
828.0,0.42929849349689914
829.0,1.3563555427249478
830.0,4.229154212102599
831.0,0.3804973770578264
832.0,0.3957910200198339
833.0,3.3379812300818483
834.0,4.961752451868307
835.0,3.39215885227265
836.0,1.3097341799027404
837.0,2.3530792218376635
838.0,4.733638788446496
839.0,1.2435820877140213
840.0,0.7564898052508666
841.0,2.8606085514049973
842.0,2.5016547431262195
843.0,2.092941453651743
844.0,3.9717229445425826
845.0,2.723507252453073
846.0,2.5760144873651423
847.0,5.52246830528582
848.0,5.511151042285624
849.0,1.504567475920821
850.0,1.0939346170441837
851.0,2.299289536735554
852.0,2.791152679624446
853.0,6.16538761159831
854.0,8.014062556585829
855.0,6.066815271263711
856.0,5.303590894167595
857.0,6.747431035235777
858.0,5.977828359788145
859.0,1.1536230891728791
860.0,4.426340670168896
861.0,8.391575636230069
862.0,7.099601849827839
863.0,5.634938286806617
864.0,5.3960788219426465
865.0,6.0585662117892864
866.0,8.231924574109273
867.0,3.6831288993175986
868.0,7.6009398154862655
869.0,5.466489559699344
870.0,5.468657639102141
871.0,7.745919845835663
872.0,8.175561316591832
873.0,5.968107905844624
874.0,3.811499465548465
875.0,5.259302655898933
876.0,5.604904989554535
877.0,5.677332093345293
878.0,6.952172810212165
879.0,7.123598511573631
880.0,6.518207360078222
881.0,9.251639469819093
882.0,7.592251949410455
883.0,5.447532387329538
884.0,7.3773097144592175
885.0,7.0372590607006815
886.0,5.264342163335451
887.0,4.815722559957616
888.0,6.95933418457204
889.0,13.774327888910832
890.0,12.668504855298496
891.0,9.643006238458469
892.0,10.276170327625476
893.0,10.768270903423055
894.0,8.488976204489434
895.0,7.802039191960892
896.0,12.566655061617967
897.0,8.860373916891238
898.0,8.419010739779647
899.0,11.524761699759194
900.0,15.305259827950378
901.0,14.824843394499515
902.0,13.26996284382143
903.0,13.969339865375751
904.0,11.825313187369634
905.0,15.88850446208981
906.0,17.33475003113442
907.0,19.17423896446873
908.0,18.867428255050964
909.0,20.528106193978154
910.0,21.976534298831698
911.0,19.62115920148253
912.0,20.54190166075542
913.0,24.387923784099915
914.0,22.203541711969766
915.0,22.84561816303944
916.0,22.902940314347944
917.0,22.607678024206233
918.0,23.97381481585242
919.0,24.94043320854743
920.0,22.07407105679541
921.0,22.936474729880285
922.0,23.505552766035553
923.0,20.125849860789984
924.0,19.714718171809622
925.0,19.710343804914
926.0,18.843876507636022
927.0,20.108246359814082
928.0,17.117136368531572
929.0,15.119405615142272
930.0,17.544803172143876
931.0,17.366131485508664
932.0,12.918811350520382
933.0,11.159596457707998
934.0,12.737449461436219
935.0,11.988187986254506
936.0,12.366917439947498
937.0,10.382085886747324
938.0,7.341959203654172
939.0,7.0760923526797574
940.0,8.337813753089613
941.0,8.28241969405622
942.0,7.020395168120802
943.0,6.138634331182493
944.0,4.088942087274472
945.0,3.4475701130514915
946.0,3.3740447219505327
947.0,5.429210334250173
948.0,5.331010027158157
949.0,4.107227333237269
950.0,2.2954726493850255
951.0,0.29539996702411336
952.0,0.5048358534622043
953.0,1.8190450779136063
954.0,3.5628086101570107
955.0,1.4224483508909649
956.0,0.8305439147829892
957.0,1.579120024435375
958.0,0.9717857492841553
959.0,0.8706047508670538
960.0,2.46161528109321
961.0,3.4655079415070187
962.0,0.4043921799064235
963.0,4.196846305794639
964.0,1.2246310961304148
965.0,1.4804190604547458
966.0,2.0839342294153798
967.0,0.7105010960002638
968.0,2.1496740139733594
969.0,1.3858021417712953
970.0,0.7606212872980315
971.0,2.9478336478635354
972.0,2.7329444203120663
973.0,1.7791997549798444
974.0,1.024626384046473
975.0,1.0422712549132251
976.0,3.370830655208084
977.0,3.8805578334073116
978.0,0.8612379382449677
979.0,0.48079846810460614
980.0,0.48423157727117766
981.0,0.4878358682381951
982.0,0.37651949381392286
983.0,0.5067352230168678
984.0,0.49205747201854216
985.0,1.8587027136382572
986.0,7.242678037423893
987.0,4.160119901503526
988.0,7.865223378682606
989.0,8.392775046833234
990.0,10.330709287704021
991.0,11.115151737910375
992.0,12.98893010188945
993.0,20.021317065236598
994.0,25.021096325115995
995.0,26.56254129349924
996.0,34.316389118432966
997.0,36.80745343905211
998.0,42.28447847322218
999.0,51.36604587038992
1000.0,57.95312045579715
1001.0,64.51437373266563
1002.0,76.08498647813133
1003.0,84.56624289855313
1004.0,98.6030888502761
1005.0,109.14769999999999
1006.0,118.90920583118125
1007.0,128.27760184240447
1008.0,136.7808637345441
1009.0,143.42538586662243
1010.0,149.330693901472
1011.0,152.5408459335823
1012.0,145.9070963092903
1013.0,145.41817731037864
1014.0,129.75632348956393
1015.0,120.40509637347586
1016.0,106.21601133008316
1017.0,93.96829932860913
1018.0,82.90220522791844
1019.0,69.9279082837944
1020.0,60.89981184136833
1021.0,51.35505052169169
1022.0,43.02077424768414
1023.0,40.75822407270973
1024.0,33.02688046672353
1025.0,31.38971894708075
1026.0,29.669120493481454
1027.0,23.440254189203024
1028.0,18.131300219810484
1029.0,18.235691925855065
1030.0,20.56391254581974
1031.0,24.12682226199758
1032.0,21.456282743057667
1033.0,20.57007476882654
1034.0,21.260056973568158
1035.0,21.53458604216266
1036.0,27.57171358735077
1037.0,37.028252000246134
1038.0,40.75298861939981
1039.0,45.101112079590116
1040.0,46.98083630834528
1041.0,52.68805974347946
1042.0,58.26558498364826
1043.0,67.60911415984768
1044.0,78.86789520307396
1045.0,94.14833479115542
1046.0,108.55713763284392
1047.0,121.10927422215498
1048.0,144.0163448381014
1049.0,161.09391852636384
1050.0,187.29785226580807
1051.0,214.36730255409233
1052.0,245.85310349727283
1053.0,281.0597591803798
1054.0,323.2191362436638
1055.0,369.5780378154932
1056.0,416.33023427542395
1057.0,469.26300420318967
1058.0,533.5880875358711
1059.0,588.2353576826848
1060.0,649.3830175941554
1061.0,709.9980825920885
1062.0,771.3052447904537
1063.0,824.8807320311607
1064.0,878.1816489797839
1065.0,921.6763676095527
1066.0,935.8912011773126
1067.0,931.6428503835589
1068.0,919.8732513515248
1069.0,892.3869902677018
1070.0,846.643976305645
1071.0,802.576345402614
1072.0,745.8270481097359
1073.0,686.7890024900223
1074.0,629.6599060628006
1075.0,573.8824594172086
1076.0,523.5075764443924
1077.0,474.80287974371277
1078.0,428.7642518319587
1079.0,384.4209641841529
1080.0,341.8885858997635
1081.0,310.27335965462186
1082.0,277.4553520892483
1083.0,246.51215066432883
1084.0,221.76076363059124
1085.0,200.9717422114411
1086.0,180.19862778420938
1087.0,154.87079137712038
1088.0,137.92138036041956
1089.0,123.45424034077095
1090.0,110.41765807869713
1091.0,95.05872014548775
1092.0,86.19763948331017
1093.0,77.75925735269587
1094.0,67.72654325345533
1095.0,59.70350964231109
1096.0,52.75939826765318
1097.0,47.19006531057819
1098.0,40.40112380165851
1099.0,38.16680961901529
1100.0,36.09696923923995
1101.0,31.598259214307447
1102.0,26.892713912549215
1103.0,25.854626721668993
1104.0,20.95698195821652
1105.0,13.929884878139806
1106.0,14.344204807397407
1107.0,9.141668250043939
1108.0,15.762312140322681
1109.0,6.693095765280668
1110.0,7.639025887051707
1111.0,8.967025690643272
1112.0,4.536080069757612
1113.0,7.176554356468198
1114.0,5.021668911046489
1115.0,0.8922040117390186
1116.0,5.929246425184473
1117.0,0.2537581733690081
1118.0,0.801425888394634
1119.0,1.8995619785422109
1120.0,0.3714086314495967
1121.0,3.433242775670117
1122.0,1.5785850584643002
1123.0,0.5573965356144138
1124.0,4.5863329930691465
1125.0,4.729832367302101
1126.0,3.206023054055395
1127.0,4.405344899218567
1128.0,2.3812663533116454
1129.0,8.028374574601255
1130.0,12.182608917598003
1131.0,11.483408173973684
1132.0,13.187047097942042
1133.0,15.52187404801401
1134.0,18.871977289924587
1135.0,19.496942358780245
1136.0,21.444762732873002
1137.0,25.90435873838492
1138.0,24.828014295225234
1139.0,27.044651014189775
1140.0,29.4314990420484
1141.0,29.760134189318123
1142.0,32.25005974483588
1143.0,29.938372459856932
1144.0,31.589471640870975
1145.0,31.607789431744457
1146.0,31.31741693664011
1147.0,32.11431783034871
1148.0,30.107058685325477
1149.0,25.51531809807357
1150.0,18.123767887144275
1151.0,17.43661556609947
1152.0,12.773671642036643
1153.0,10.43306084814899
1154.0,8.39013106809027
1155.0,7.2259647683834745
1156.0,5.1309678896769135
1157.0,1.7059001321417706
1158.0,0.37672725160301207
1159.0,0.4715172159656272
1160.0,1.8153504779316685
1161.0,5.495883592098321
1162.0,3.2757825152766853
1163.0,3.386145597922368
1164.0,0.45820124567185166
1165.0,3.4134298219246157
1166.0,0.16132719124961054
1167.0,0.3392128381899016
1168.0,2.3620394951569046
1169.0,0.5648649491778115
1170.0,1.101410050200808
1171.0,4.131595785532947
1172.0,2.2816929232224803
1173.0,0.8884949799287811
1174.0,0.5228354016175919
1175.0,1.1002943888757564
1176.0,1.2780074431624524
1177.0,0.5378051229753105
1178.0,0.21253158905981676
1179.0,2.081095704137821
1180.0,0.4383091840562282
1181.0,1.969458322033182
1182.0,1.0237081615895678
1183.0,2.75020556265609
1184.0,3.1158760894594777
1185.0,4.375427295352758
1186.0,2.7854766609118355
1187.0,2.64081570320934
1188.0,3.9582204540618684
1189.0,5.714074054824457
1190.0,5.9706128308753295
1191.0,3.6898455075634224
1192.0,5.0291660394910656
1193.0,7.612960519645876
1194.0,6.319475271824726
1195.0,7.289180965870491
1196.0,8.9730764892901
1197.0,6.5070662732032885
1198.0,7.500938874131158
1199.0,1.797468123463926
1200.0,7.534784288069706
1201.0,8.931289147333601
1202.0,9.584547742750946
1203.0,5.247390078845268
1204.0,3.389976240921641
1205.0,6.559208756316072
1206.0,9.331705751016946
1207.0,12.96007301599651
1208.0,11.256281751809077
1209.0,8.97953532509007
1210.0,5.193584613256306
1211.0,8.035879849814755
1212.0,7.530517360289133
1213.0,8.09843439931667
1214.0,11.269946323810277
1215.0,13.789829471684513
1216.0,11.701019839352652
1217.0,7.387328047039667
1218.0,8.203333817446836
1219.0,11.26658706780048
1220.0,7.946718530304273
1221.0,12.269122918687161
1222.0,10.66971424199701
1223.0,10.069241467257804
1224.0,11.912080851871748
1225.0,10.282843485649579
1226.0,14.376560399681344
1227.0,11.165893915490951
1228.0,9.045824552608893
1229.0,11.411211133552031
1230.0,12.225708636269623
1231.0,12.32036785234856
1232.0,15.41104990545356
1233.0,21.322891908042283
1234.0,18.01262292510996
1235.0,19.90473779790032
1236.0,18.596243727790444
1237.0,20.496718066644743
1238.0,11.924810109692727
1239.0,11.684541018991101
1240.0,9.789670619863339
1241.0,6.336506282490638
1242.0,8.129815882510055
1243.0,8.140883681685983
1244.0,4.8325806338297985
1245.0,6.775659403144246
1246.0,8.772571144237304
1247.0,6.867980145379801
1248.0,8.634848356905977
1249.0,7.719547416166933
1250.0,8.669992411922392
1251.0,5.170910274326087
1252.0,8.98081102080832
1253.0,13.99286484108225
1254.0,9.206039734654704
1255.0,6.271812817713017
1256.0,5.2965038621500184
1257.0,1.9737901602992445
1258.0,0.19155278972610795
1259.0,0.07824765102266576
1260.0,2.5613458188580616
1261.0,3.529421275368565
1262.0,3.8789956874964715
1263.0,3.203028201878026
1264.0,3.519726007364673
1265.0,4.443635252583335
1266.0,6.416024723980628
1267.0,5.2048137852412175
1268.0,1.004490755617536
1269.0,0.4037803482700758
1270.0,5.562186805074082
1271.0,8.33856400563331
1272.0,6.748761523483143
1273.0,8.322336788482113
1274.0,5.232771318731731
1275.0,2.7388078778444287
1276.0,0.03822045125437487
1277.0,0.0
1278.0,0.0
1279.0,0.0
1280.0,0.0
1281.0,0.0
1282.0,0.0
1283.0,0.0
1284.0,0.0
1285.0,0.0
1286.0,0.0
1287.0,0.0
1288.0,0.0
1289.0,0.0
1290.0,0.0
1291.0,0.0
1292.0,0.0
1293.0,0.0
1294.0,0.0
1295.0,0.0
1296.0,0.0
1297.0,0.0
1298.0,0.0
1299.0,0.0
1300.0,0.0
1301.0,0.0
1302.0,0.0
1303.0,0.0
1304.0,0.0
1305.0,0.0
1306.0,0.0
1307.0,0.0
1308.0,0.0
1309.0,0.0
1310.0,0.0
1311.0,0.0
1312.0,0.0
1313.0,0.0
1314.0,0.0
1315.0,0.0
1316.0,0.0
1317.0,0.0
1318.0,0.0
1319.0,0.0
1320.0,0.0
1321.0,0.0
1322.0,0.0
1323.0,0.0
1324.0,0.0
1325.0,0.0
1326.0,0.0
1327.0,0.0
1328.0,0.0
1329.0,0.0
1330.0,0.0
1331.0,0.0
1332.0,0.0
1333.0,0.0
1334.0,0.0
1335.0,0.0
1336.0,0.0
1337.0,0.0
1338.0,0.0
1339.0,0.0
1340.0,0.0
1341.0,0.0
1342.0,0.0
1343.0,0.0
1344.0,0.0
1345.0,0.0
1346.0,0.0
1347.0,0.0
1348.0,0.0
1349.0,0.0
1350.0,0.0
1351.0,0.0
1352.0,0.0
1353.0,0.0
1354.0,0.0
1355.0,0.0
1356.0,0.0
1357.0,0.0
1358.0,0.0
1359.0,0.0
1360.0,0.0
1361.0,0.0
1362.0,0.0
1363.0,0.0
1364.0,0.0
1365.0,0.0
1366.0,0.0
1367.0,0.0
1368.0,0.0
1369.0,0.0
1370.0,0.0
1371.0,0.0
1372.0,0.0
1373.0,0.0
1374.0,0.0
1375.0,0.0
1376.0,0.0
1377.0,0.0
1378.0,0.0
1379.0,0.0
1380.0,0.0
1381.0,0.0
1382.0,0.0
1383.0,0.0
1384.0,0.0
1385.0,0.0
1386.0,0.0
1387.0,0.0
1388.0,0.0
1389.0,0.0
1390.0,0.0
1391.0,0.0
1392.0,0.0
1393.0,0.0
1394.0,0.0
1395.0,0.0
1396.0,0.0
1397.0,0.0
1398.0,0.0
1399.0,0.0
1400.0,0.0
1401.0,0.0
1402.0,0.0
1403.0,0.0
1404.0,0.0
1405.0,0.0
1406.0,0.0
1407.0,0.0
1408.0,0.0
1409.0,0.0
1410.0,0.0
1411.0,0.0
1412.0,0.0
1413.0,0.0
1414.0,0.0
1415.0,0.0
1416.0,0.0
1417.0,0.0
1418.0,0.0
1419.0,0.0
1420.0,0.0
1421.0,0.0
1422.0,0.0
1423.0,0.0
1424.0,0.0
1425.0,0.0
1426.0,0.0
1427.0,0.0
1428.0,0.0
1429.0,0.0
1430.0,0.0
1431.0,0.0
1432.0,0.0
1433.0,0.0
1434.0,0.0
1435.0,0.0
1436.0,0.0
1437.0,0.0
1438.0,0.0
1439.0,0.0
1440.0,0.0
1441.0,0.0
1442.0,0.0
1443.0,0.0
1444.0,0.0
1445.0,0.0
1446.0,0.0
1447.0,0.0
1448.0,0.0
1449.0,0.0
1450.0,0.0
1451.0,0.0
1452.0,0.0
1453.0,0.0
1454.0,0.0
1455.0,0.0
1456.0,0.0
1457.0,0.0
1458.0,0.0
1459.0,0.0
1460.0,0.0
1461.0,0.0
1462.0,0.0
1463.0,0.0
1464.0,0.0
1465.0,0.0
1466.0,0.0
1467.0,0.0
1468.0,0.0
1469.0,0.0
1470.0,0.0
1471.0,0.0
1472.0,0.0
1473.0,0.0
1474.0,0.0
1475.0,0.0
1476.0,0.0
1477.0,0.0
1478.0,0.0
1479.0,0.0
1480.0,0.0
1481.0,0.0
1482.0,0.0
1483.0,0.0
1484.0,0.0
1485.0,0.0
1486.0,0.0
1487.0,0.0
1488.0,0.0
1489.0,0.0
1490.0,0.0
1491.0,0.0
1492.0,0.0
1493.0,0.0
1494.0,0.0
1495.0,0.0
1496.0,0.0
1497.0,0.0
1498.0,0.0
1499.0,0.0
1500.0,0.0
1501.0,0.0
1502.0,0.0
1503.0,0.0
1504.0,0.0
1505.0,0.0
1506.0,0.0
1507.0,0.0
1508.0,0.0
1509.0,0.0
1510.0,0.0
1511.0,0.0
1512.0,0.0
1513.0,0.0
1514.0,0.0
1515.0,0.0
1516.0,0.0
1517.0,0.0
1518.0,0.0
1519.0,0.0
1520.0,0.0
1521.0,0.0
1522.0,0.0
1523.0,0.0
1524.0,0.0
1525.0,0.0
1526.0,0.0
1527.0,0.0
1528.0,0.0
1529.0,0.0
1530.0,0.0
1531.0,0.0
1532.0,0.0
1533.0,0.0
1534.0,0.0
1535.0,0.0
1536.0,0.0
1537.0,0.0
1538.0,0.0
1539.0,0.0
1540.0,0.0
1541.0,0.0
1542.0,0.0
1543.0,0.0
1544.0,0.0
1545.0,0.0
1546.0,0.0
1547.0,0.0
1548.0,0.0
1549.0,0.0
1550.0,0.0
1551.0,0.0
1552.0,0.0
1553.0,0.0
1554.0,0.0
1555.0,0.0
1556.0,0.0
1557.0,0.0
1558.0,0.0
1559.0,0.0
1560.0,0.0
1561.0,0.0
1562.0,0.0
1563.0,0.0
1564.0,0.0
1565.0,0.0
1566.0,0.0
1567.0,0.0
1568.0,0.0
1569.0,0.0
1570.0,0.0
1571.0,0.0
1572.0,0.0
1573.0,0.0
1574.0,0.0
1575.0,0.0
1576.0,0.0
1577.0,0.0
1578.0,0.0
1579.0,0.0
1580.0,0.0
1581.0,0.0
1582.0,0.0
1583.0,0.0
1584.0,0.0
1585.0,0.0
1586.0,0.0
1587.0,0.0
1588.0,0.0
1589.0,0.0
1590.0,0.0
1591.0,0.0
1592.0,0.0
1593.0,0.0
1594.0,0.0
1595.0,0.0
1596.0,0.0
1597.0,0.0
1598.0,0.0
1599.0,0.0
