0.0,0.0
1.0,0.0
2.0,0.0
3.0,0.0
4.0,0.0
5.0,0.0
6.0,0.0
7.0,0.0
8.0,0.0
9.0,0.0
10.0,0.0
11.0,0.0
12.0,0.0
13.0,0.0
14.0,0.0
15.0,0.0
16.0,0.0
17.0,0.0
18.0,0.0
19.0,0.0
20.0,0.0
21.0,0.0
22.0,0.0
23.0,0.0
24.0,0.0
25.0,0.0
26.0,0.0
27.0,0.0
28.0,0.0
29.0,0.0
30.0,0.0
31.0,0.0
32.0,0.0
33.0,0.0
34.0,0.0
35.0,0.0
36.0,0.0
37.0,0.0
38.0,0.0
39.0,0.0
40.0,0.0
41.0,0.0
42.0,0.0
43.0,0.0
44.0,0.0
45.0,0.0
46.0,0.0
47.0,0.0
48.0,0.0
49.0,0.0
50.0,0.0
51.0,0.0
52.0,0.0
53.0,0.0
54.0,0.0
55.0,0.0
56.0,0.0
57.0,0.0
58.0,0.0
59.0,0.0
60.0,0.0
61.0,0.0
62.0,0.0
63.0,0.0
64.0,0.0
65.0,0.0
66.0,0.0
67.0,0.0
68.0,0.0
69.0,0.0
70.0,0.0
71.0,0.0
72.0,0.0
73.0,0.0
74.0,0.0
75.0,0.0
76.0,0.0
77.0,0.0
78.0,0.0
79.0,0.0
80.0,0.0
81.0,0.0
82.0,0.0
83.0,0.0
84.0,0.0
85.0,0.0
86.0,0.0
87.0,0.0
88.0,0.0
89.0,0.0
90.0,0.0
91.0,0.0
92.0,0.0
93.0,0.0
94.0,0.0
95.0,0.0
96.0,0.0
97.0,0.0
98.0,0.0
99.0,0.0
100.0,0.0
101.0,0.0
102.0,0.0
103.0,0.0
104.0,0.0
105.0,0.0
106.0,0.0
107.0,0.0
108.0,0.0
109.0,0.0
110.0,0.0
111.0,0.0
112.0,0.0
113.0,0.0
114.0,0.0
115.0,0.0
116.0,0.0
117.0,0.0
118.0,0.0
119.0,0.0
120.0,0.0
121.0,0.0
122.0,0.0
123.0,0.0
124.0,0.0
125.0,0.0
126.0,-0.22009551417840054
127.0,0.025855060851139852
128.0,1.1510395254987846
129.0,2.139192235744914
130.0,1.786574225812605
131.0,4.8365595979449765
132.0,5.837598962682006
133.0,4.3785363681060225
134.0,3.9087692292258427
135.0,4.938645919405296
136.0,7.273618127080448
137.0,10.679308986652991
138.0,14.595898836886281
139.0,18.13951351459443
140.0,18.47427966016986
141.0,18.10243429962701
142.0,18.0385979720078
143.0,17.463194679540557
144.0,15.115658997271785
145.0,13.81268520858361
146.0,13.13025653192347
147.0,11.378203326042977
148.0,8.579148427756403
149.0,7.067192825362793
150.0,6.462148515166224
151.0,6.143454624109926
152.0,6.285209218511213
153.0,6.882675801207456
154.0,8.314487145531793
155.0,9.651048771560756
156.0,8.171175558511283
157.0,6.834512992411507
158.0,8.556522477369343
159.0,10.760215921543058
160.0,9.406291082464755
161.0,9.326307056981545
162.0,9.930485008812777
163.0,10.62556323892841
164.0,10.778499117681827
165.0,9.574255183636014
166.0,10.17132396432605
167.0,10.662312130420371
168.0,10.630698880870314
169.0,11.692086003771374
170.0,12.708344375928505
171.0,13.147572517735084
172.0,13.700142122934922
173.0,14.904394631119665
174.0,13.828861977479717
175.0,13.425743097988294
176.0,13.40818766826027
177.0,13.09623219614857
178.0,13.60770078689937
179.0,12.973461436118619
180.0,12.439736904316764
181.0,12.431672836015206
182.0,12.019713307173042
183.0,11.42261209429674
184.0,11.023376155933828
185.0,10.562719491794466
186.0,9.679746702666327
187.0,9.121063246406138
188.0,7.8064623405337334
189.0,5.7936650987217275
190.0,4.131965219870757
191.0,5.066161636063715
192.0,3.564896239670312
193.0,2.2300176326082264
194.0,2.319965101346719
195.0,3.09596898584421
196.0,2.0894587434308276
197.0,1.4036223310199722
198.0,0.7995842210085574
199.0,0.3221801632273083
200.0,0.3323521535999308
201.0,0.17121703838832633
202.0,0.31579223484204355
203.0,0.706150103372657
204.0,0.08104436320440521
205.0,0.6547680083748597
206.0,0.5958474463137976
207.0,0.40870005895768186
208.0,0.6901745807797791
209.0,0.5659927652801742
210.0,0.9387130517375176
211.0,1.3997128265056207
212.0,1.4831718105798872
213.0,1.0538292355433547
214.0,0.8032330187220587
215.0,0.17920563045784788
216.0,0.7490515677891745
217.0,1.0846853388719908
218.0,1.0167675889931629
219.0,1.4179136929661353
220.0,1.7308548777980306
221.0,1.7727661892963154
222.0,2.9267658872075524
223.0,2.96003002572005
224.0,3.230473578816753
225.0,3.8587952837758244
226.0,4.063061251628838
227.0,5.260718069288959
228.0,5.59878033591802
229.0,5.933331314296667
230.0,7.167006011788506
231.0,8.757474345964724
232.0,8.168357469269202
233.0,8.261031602545222
234.0,9.215609918377629
235.0,9.184558946514189
236.0,10.10397960622669
237.0,11.016752340174415
238.0,11.574734815922776
239.0,11.852187509850994
240.0,12.32706991889186
241.0,13.688213243776168
242.0,14.220966230807015
243.0,14.378288085234491
244.0,15.606742608624929
245.0,15.02403806131326
246.0,15.745507970439634
247.0,16.96990467185597
248.0,17.71718711406707
249.0,18.149408838393416
250.0,19.181789990567097
251.0,19.078954744900035
252.0,17.252023562978632
253.0,13.966900074668878
254.0,11.420759898077216
255.0,7.775597757427687
256.0,4.730345996611044
257.0,3.3946628189684933
258.0,3.1751228788818606
259.0,2.6910228994617884
260.0,1.634318888228448
261.0,1.1795566644633475
262.0,1.9950301900779208
263.0,1.2530191089825586
264.0,0.8690156635486657
265.0,0.8206425525471247
266.0,1.2429646522569802
267.0,2.820516279628473
268.0,2.511940110739135
269.0,3.1925014984858953
270.0,3.85197010273246
271.0,3.147696449727949
272.0,2.346227428343105
273.0,1.8503203014804457
274.0,1.3266035832794278
275.0,1.1556843525400267
276.0,1.9352891034552486
277.0,1.1860963404469027
278.0,1.61248431962814
279.0,2.5615414558981655
280.0,3.137958600490558
281.0,3.4437060711475636
282.0,3.663488854781228
283.0,4.48121056763503
284.0,5.3315978643692175
285.0,5.533116129267684
286.0,5.965452605566119
287.0,7.3003158274411
288.0,8.930427005465729
289.0,10.260594456641936
290.0,11.113491518198156
291.0,12.100777897240663
292.0,14.701483385155285
293.0,16.79237114477741
294.0,17.37581545408159
295.0,18.921976915944835
296.0,19.15375553019852
297.0,18.99648259460036
298.0,18.3188626215563
299.0,16.592883239805836
300.0,14.552667293579097
301.0,13.869359572268879
302.0,12.726948526841518
303.0,10.993060374061956
304.0,10.047101352557684
305.0,9.303340766830841
306.0,10.507637092347723
307.0,12.029895934030197
308.0,12.445628211097914
309.0,11.861674208534842
310.0,12.349922725335594
311.0,13.019052469320837
312.0,13.869663791034691
313.0,15.155785563335584
314.0,16.481694916469618
315.0,17.249475263014
316.0,18.496320184212607
317.0,20.47856084928384
318.0,22.901265856205384
319.0,25.98131171884508
320.0,28.5266325902028
321.0,32.24879328745094
322.0,36.673333670899545
323.0,39.126376524736294
324.0,43.29405557987096
325.0,43.68768304575584
326.0,42.65264623763235
327.0,41.50668632126718
328.0,34.8125113830123
329.0,28.27153220429653
330.0,22.573521549869408
331.0,17.278959260571042
332.0,12.191483127733594
333.0,8.405199182020413
334.0,5.7308674096795205
335.0,4.273012856268061
336.0,3.4724107880881494
337.0,2.53222477099894
338.0,1.752754383694996
339.0,1.4688834659073868
340.0,0.5333406609015731
341.0,0.12410403757040556
342.0,1.1307966520856263
343.0,0.19531026785505445
344.0,0.94107587990079
345.0,1.0315408917969637
346.0,0.4548658129132453
347.0,1.204419268005279
348.0,0.7287165674485817
349.0,0.052618167595999535
350.0,0.09166683416099036
351.0,0.28843951504368376
352.0,0.35364320695744383
353.0,0.3015185164156298
354.0,0.25926015849851025
355.0,0.5872861457779227
356.0,0.08054075560522732
357.0,0.7151718386355985
358.0,0.3740026685138711
359.0,0.44842368018929496
360.0,0.972733832078162
361.0,1.1821117553790494
362.0,0.8104176301364734
363.0,0.3097159731990622
364.0,0.38287821706733344
365.0,0.7494128337948913
366.0,0.8296730070036341
367.0,1.7366906955040144
368.0,1.5738168644227035
369.0,1.732857977795811
370.0,2.774689295247259
371.0,4.072696064034266
372.0,3.309338895163475
373.0,4.7384014915668216
374.0,5.300153924581339
375.0,5.083432433726194
376.0,7.7357232540644105
377.0,8.696249993426823
378.0,9.404935273211123
379.0,10.223281321155113
380.0,11.421950777733793
381.0,13.359617532979152
382.0,14.541372946512006
383.0,17.979126605209213
384.0,21.681152925861777
385.0,24.869546333551618
386.0,29.589695357965873
387.0,32.05162765193065
388.0,37.39334639587518
389.0,42.84241363297898
390.0,46.95256719298975
391.0,52.93271039073933
392.0,59.242297538837235
393.0,66.89089117486353
394.0,75.66930625808212
395.0,85.92542800251027
396.0,99.06440729289417
397.0,112.37691431022172
398.0,125.73705752086359
399.0,137.86908244467412
400.0,147.25323460814397
401.0,153.66909045432126
402.0,147.5007682373935
403.0,136.23383987925524
404.0,120.79717174943599
405.0,101.27544102418547
406.0,83.15801651123229
407.0,67.88534243093417
408.0,55.682760894269904
409.0,46.79014591087321
410.0,40.74641364910124
411.0,35.93425022398525
412.0,31.129246737329495
413.0,28.787293708220712
414.0,27.92350993306298
415.0,26.881633825986313
416.0,25.398908444283062
417.0,24.58101273131428
418.0,23.43737235230627
419.0,22.925831116420504
420.0,23.502511882667818
421.0,24.06089514548959
422.0,25.266651597623042
423.0,25.156684180365655
424.0,23.599879600797525
425.0,21.454070490117672
426.0,20.050947154161737
427.0,18.85115151403275
428.0,16.80090311258165
429.0,14.535979928519984
430.0,12.928845221348958
431.0,12.375836639078173
432.0,11.011721386063789
433.0,10.520585202640323
434.0,11.233358895971085
435.0,11.901484934849522
436.0,11.074733996943495
437.0,11.456572291064758
438.0,12.339943735881473
439.0,13.492429678801637
440.0,14.066763774248889
441.0,13.638720884538316
442.0,15.360059071629466
443.0,16.51093018905017
444.0,16.60557705420629
445.0,16.38256385267948
446.0,16.543111698487582
447.0,15.589075975477943
448.0,15.440835367509322
449.0,13.411072249347596
450.0,10.900193709581384
451.0,10.046377756415781
452.0,8.491658705608003
453.0,8.667847912097946
454.0,8.61336393704314
455.0,7.509989423420083
456.0,5.626176582728091
457.0,4.009932844931917
458.0,4.1540750102243456
459.0,3.4918761573766117
460.0,2.8573066586858293
461.0,2.976466106758727
462.0,2.785573320549306
463.0,2.555989248574304
464.0,1.5721270529463958
465.0,1.027583590469793
466.0,0.9808496760432047
467.0,0.2822398498904662
468.0,0.11309505095369675
469.0,0.4124073657867517
470.0,0.058252964664424776
471.0,0.6744195148053774
472.0,0.08896519792474777
473.0,0.4406824999143696
474.0,1.6106096968389982
475.0,0.8418859643189259
476.0,0.16982827600879652
477.0,1.1441032529033397
478.0,0.6468220714465028
479.0,0.06732134692153341
480.0,0.5244365148560262
481.0,0.5295070830569361
482.0,0.5829365044981055
483.0,0.778411413573936
484.0,0.8955374579039825
485.0,0.4073879480183609
486.0,0.4606543499276257
487.0,1.2824170192566384
488.0,1.9080185187274439
489.0,1.032660822308485
490.0,1.161870130182053
491.0,2.0060353771698356
492.0,2.571630588279073
493.0,2.2878880442511065
494.0,2.0752440534518612
495.0,2.4884701463854286
496.0,2.8326168649842502
497.0,2.8455286305539493
498.0,2.758308830827033
499.0,3.0189785216756517
500.0,2.91150720112411
501.0,3.1180881790259063
502.0,3.3468211083181227
503.0,3.566367135150241
504.0,4.082479989730413
505.0,3.76519068808212
506.0,3.589755396876557
507.0,4.035945250133762
508.0,4.4221552000755615
509.0,4.381127494271477
510.0,6.3075652110180975
511.0,5.674461802915145
512.0,5.556265396759659
513.0,6.327624566492522
514.0,6.91066304615882
515.0,6.909961723330334
516.0,8.934174425603667
517.0,8.826401466348562
518.0,9.165200407155837
519.0,10.5444459798229
520.0,11.186972538625763
521.0,11.564979475524947
522.0,12.10174263999203
523.0,12.251042375524687
524.0,12.575279000588404
525.0,13.445791094294528
526.0,13.877245710805552
527.0,14.641127340175451
528.0,15.686754976632262
529.0,15.59318864705758
530.0,15.064074453751198
531.0,15.787835993721265
532.0,15.158280855695793
533.0,15.681802111538026
534.0,16.184704159672208
535.0,15.782279823032075
536.0,14.977209105458458
537.0,14.843716647333668
538.0,14.386915223856345
539.0,14.019793593515104
540.0,13.781610744525203
541.0,13.013824873239619
542.0,11.443346491493877
543.0,10.904392887412243
544.0,10.996363252874804
545.0,10.51024843954893
546.0,9.474628447909264
547.0,8.40732880390404
548.0,7.588927736616106
549.0,7.171067682924778
550.0,6.276272643720894
551.0,5.805101183337096
552.0,5.867290822072127
553.0,5.746907876175645
554.0,5.885004720467968
555.0,5.697988403594461
556.0,5.131699197722032
557.0,5.068434280343805
558.0,5.877120256082743
559.0,6.486785547798013
560.0,5.908190333858824
561.0,5.9774159698777325
562.0,6.25986696578583
563.0,6.214607731108841
564.0,5.8622933693382056
565.0,6.201153872058094
566.0,6.9617718890054645
567.0,7.193766457531527
568.0,7.243175740400166
569.0,7.808868635209856
570.0,9.003866594367524
571.0,9.325647173626681
572.0,8.784264237356048
573.0,9.372413712397538
574.0,10.503179196682872
575.0,10.85371338056343
576.0,10.636206816079314
577.0,9.713189974817917
578.0,9.36915285048821
579.0,9.453774177325743
580.0,9.244613942316855
581.0,8.317617589620095
582.0,7.709863870687822
583.0,6.830945321088275
584.0,5.9539143674680854
585.0,5.573653083009198
586.0,5.485587391011417
587.0,4.941347277221318
588.0,4.373254870699937
589.0,3.9006503968008754
590.0,2.972349552386774
591.0,2.709445127880727
592.0,3.29044207276527
593.0,1.9219453685828956
594.0,1.409849850667056
595.0,1.9767722367606524
596.0,2.2420548940804084
597.0,1.6063553261706807
598.0,0.6354595594656387
599.0,0.7256847570531898
600.0,0.6102006127668325
601.0,0.991397436299268
602.0,0.7722571399407601
603.0,0.08244895422906659
604.0,0.4744245053401161
605.0,-0.011111175803714016
606.0,0.23695601052141405
607.0,0.28506656271125086
608.0,0.2762545496290804
609.0,0.2618381442316835
610.0,0.6382588852855536
611.0,0.3697028400954948
612.0,0.41597372759792123
613.0,1.116015806369515
614.0,0.47766333021471385
615.0,0.34333378005505666
616.0,0.4714516509716641
617.0,1.911684321732064
618.0,1.2223186414811733
619.0,0.5742625358105808
620.0,0.8409539929689651
621.0,1.1674648956663478
622.0,0.5514873830466281
623.0,0.49324055605709294
624.0,0.4449429771113783
625.0,0.1298715209441373
626.0,0.3430081097274296
627.0,0.3168017942040523
628.0,0.7609720180559474
629.0,0.41518735501017434
630.0,0.16581159113758687
631.0,0.5012776976256821
632.0,0.7691311101362123
633.0,0.3636997563355647
634.0,-0.013943279461843794
635.0,0.250183706970842
636.0,0.5598073399891896
637.0,0.5301922737817523
638.0,0.18755632785044404
639.0,1.0097425437297838
640.0,1.118837580660814
641.0,0.8659351299634032
642.0,1.1289231840451057
643.0,0.7099746888710845
644.0,0.6013465010144751
645.0,1.900433903033861
646.0,1.4349556341668364
647.0,1.6549415192354544
648.0,1.8910140016563697
649.0,2.0849392788736196
650.0,2.3387304126867448
651.0,2.534095836563966
652.0,2.348968631756767
653.0,3.068485191766474
654.0,3.470671120881681
655.0,3.778189690185538
656.0,4.296289043107769
657.0,4.952157982137539
658.0,5.441482107740531
659.0,6.1646339582167915
660.0,7.437325379445776
661.0,8.353895154366892
662.0,9.147023093619397
663.0,10.511029779156864
664.0,11.766751311637776
665.0,13.834417916132132
666.0,16.54118604209127
667.0,18.84706538102355
668.0,21.926851011687436
669.0,26.63187316586373
670.0,31.769500480368876
671.0,39.29577067887865
672.0,46.02520948357988
673.0,54.558264098416885
674.0,65.46419100982223
675.0,77.61691486816731
676.0,91.14164281769413
677.0,106.57272856779336
678.0,124.07107597970403
679.0,144.7005072165707
680.0,168.41359869838033
681.0,197.15329932578868
682.0,233.62656325120852
683.0,272.17550599049355
684.0,314.02272640829784
685.0,356.10039204757464
686.0,393.6022291311437
687.0,416.7246425721388
688.0,414.58253283114146
689.0,385.4782895747562
690.0,334.9354952079402
691.0,276.2664920691302
692.0,223.65512297207962
693.0,180.8421548752532
694.0,145.62426927991376
695.0,118.27550430081567
696.0,97.34178076860631
697.0,82.05359448917008
698.0,69.7884769495605
699.0,59.32373342366913
700.0,50.87261259634136
701.0,44.67384673048612
702.0,39.542251001573675
703.0,34.85674779287167
704.0,30.503377609479777
705.0,26.870997814977294
706.0,24.21372590670011
707.0,21.990492517181117
708.0,18.5513983906532
709.0,17.051175280399452
710.0,15.712411572753373
711.0,13.851264703848063
712.0,12.261223055331497
713.0,11.312951520234229
714.0,8.977705365310229
715.0,8.62647999572052
716.0,8.578069699965626
717.0,7.979589269763812
718.0,6.784665997208755
719.0,5.820050543926349
720.0,6.024981384102613
721.0,6.444291317969884
722.0,6.137042410188891
723.0,5.507164670404292
724.0,4.854778368789144
725.0,4.400363138781495
726.0,4.202586470043195
727.0,3.472459653687402
728.0,3.5974071652860853
729.0,3.166071990614141
730.0,2.5099745139734058
731.0,2.285069003436464
732.0,2.5546510919346317
733.0,2.6659653408477655
734.0,1.7231719499448128
735.0,2.0590624587817383
736.0,2.3993891383216783
737.0,1.799560147661193
738.0,1.3537067817513295
739.0,2.22574025142667
740.0,0.5838486289113308
741.0,0.4423786431903927
742.0,0.7917657921120262
743.0,1.2940604987539173
744.0,1.4757594531657934
745.0,1.2940564691163403
746.0,1.6387179174383304
747.0,1.0162524260882777
748.0,1.7097575186924683
749.0,1.8396296829816658
750.0,1.7628416920088188
751.0,2.1352056042571066
752.0,2.504542007845314
753.0,2.141329822571219
754.0,2.980879456492696
755.0,3.1385431723489745
756.0,2.9907133612252945
757.0,2.918491288362979
758.0,2.8070919548755437
759.0,2.6357350847928323
760.0,2.9535757333821024
761.0,2.714256141286061
762.0,2.5433250412832122
763.0,2.21029181071539
764.0,1.87906065839288
765.0,1.8286580473645149
766.0,1.6130961665782997
767.0,1.7401166777608554
768.0,2.0470758980215136
769.0,1.9206311071467694
770.0,1.4572302857326447
771.0,1.2161229768792412
772.0,1.4503297378020719
773.0,1.5600853185470833
774.0,0.8677312616969155
775.0,0.22989512777697874
776.0,0.4571847538554624
777.0,1.0214603452414088
778.0,0.9835078905958262
779.0,0.3317041968060764
780.0,0.3697989266053884
781.0,0.1548321671549101
782.0,0.1406216589873734
783.0,0.17175066058101604
784.0,0.07887368294930025
785.0,0.16235984014724203
786.0,0.682058113476568
787.0,0.7649536468466388
788.0,0.18741067775233797
789.0,0.1438970109836964
790.0,0.14380407669453404
791.0,0.21181445715524183
792.0,0.44440882532894066
793.0,0.10320869899996056
794.0,0.42727306806944754
795.0,0.08584265831067696
796.0,0.045802296130531724
797.0,0.1821509886755043
798.0,0.22897600410917732
799.0,0.08599988099369842
800.0,0.14894195492365372
801.0,0.19566646057048329
802.0,0.061086964326373394
803.0,0.4569215815663783
804.0,0.289703956040927
805.0,0.11410515015738883
806.0,0.014599813441928474
807.0,0.042682953101702274
808.0,0.21059975927400998
809.0,0.13393979901422817
810.0,0.056953829467158434
811.0,0.11718136453371876
812.0,0.16923994499447198
813.0,0.046088110297639893
814.0,0.2839130998363531
815.0,0.12674258990549792
816.0,0.1882279060706132
817.0,0.1090829567549845
818.0,0.0931183112983424
819.0,0.08073959694136672
820.0,0.10614748444502314
821.0,0.2657004845742922
822.0,0.02170603757935491
823.0,0.09327693160232987
824.0,0.09120840091153441
825.0,0.15177954776294492
826.0,0.40147523051887174
827.0,0.3534737753800814
828.0,0.20483970306183336
829.0,0.6591839083327794
830.0,0.24085197720977966
831.0,0.026180193462559544
832.0,0.07503179143603744
833.0,0.20114350577373624
834.0,0.3144137023003116
835.0,0.22295782856448307
836.0,0.8233527906151752
837.0,1.3611847274505329
838.0,0.688370961914261
839.0,0.18954250236461392
840.0,0.4962690554025918
841.0,0.8973560751831386
842.0,0.8537663709626656
843.0,2.0264807676276146
844.0,1.40932801430336
845.0,1.0335762894722944
846.0,0.7855055419061656
847.0,0.7680144729134831
848.0,0.9935764736165276
849.0,1.0485019244659382
850.0,1.0907377635671123
851.0,1.192429136314903
852.0,1.170161327266666
853.0,1.1974039861521857
854.0,1.5200376955750663
855.0,1.6617345434567374
856.0,1.1701030412761408
857.0,0.8091939312394943
858.0,1.447625371484565
859.0,1.0580587794098588
860.0,1.6263277110424206
861.0,1.6712992091753696
862.0,1.1296756530080239
863.0,0.9767530680939178
864.0,1.1259909679237583
865.0,1.23541024221454
866.0,2.361795428232903
867.0,2.0201621419489655
868.0,1.4552908669659268
869.0,1.6312241315938427
870.0,1.8302219550914114
871.0,1.41520657602024
872.0,1.8305176740240567
873.0,1.769482511462621
874.0,1.3853329850505989
875.0,1.5901459846580375
876.0,1.3796403094127934
877.0,1.185028233478774
878.0,1.6666278383224522
879.0,1.9062421933369387
880.0,1.9806540119021305
881.0,1.4456921719218543
882.0,1.494124684558378
883.0,1.9050187025375749
884.0,1.7506070618750653
885.0,1.259688112262319
886.0,1.5206486448968926
887.0,2.5193710808750085
888.0,2.7841641026567103
889.0,2.024483518473882
890.0,1.646477076076442
891.0,2.1675160166228205
892.0,2.693189868380994
893.0,2.6272754016843893
894.0,2.599085158605474
895.0,2.541484132916791
896.0,2.2347404005280347
897.0,2.633427623470165
898.0,3.524529151090102
899.0,4.065717983338012
900.0,3.9717753876649016
901.0,3.935516564902106
902.0,4.663357765590767
903.0,5.0627499014178134
904.0,4.754641401809005
905.0,4.6383443254184265
906.0,5.375995572634525
907.0,5.604925345005903
908.0,5.643039117547265
909.0,6.495933340773905
910.0,6.695873151723891
911.0,6.284268624714987
912.0,6.751010064976196
913.0,7.086967014463923
914.0,6.939175375639214
915.0,6.692088115757463
916.0,7.06827300604054
917.0,7.7061246786355095
918.0,6.875826862371191
919.0,6.853331794807099
920.0,6.808536310341901
921.0,6.933621625858055
922.0,6.264230220728709
923.0,5.90069010194645
924.0,5.990250430337483
925.0,5.618653881193417
926.0,5.980727986364672
927.0,4.782740648789869
928.0,4.6258678839334815
929.0,5.064648744010777
930.0,4.855034063495555
931.0,4.39514207190058
932.0,4.291067324041153
933.0,4.25739816406533
934.0,3.9310585985593125
935.0,3.5846654997678233
936.0,2.9410322544049645
937.0,3.5475323708729447
938.0,3.237715670338536
939.0,2.6434324192134637
940.0,2.485793313243109
941.0,2.231320952184229
942.0,2.269479577786917
943.0,2.1095881107935814
944.0,1.6720213410318139
945.0,2.0308102569332336
946.0,1.8071456275908546
947.0,1.0815399175945917
948.0,0.4726855104754019
949.0,0.4317587334896707
950.0,0.928376584442339
951.0,0.4717823293605583
952.0,0.48691864368006854
953.0,0.3052413491377217
954.0,0.2677314947263233
955.0,0.9477789619357787
956.0,0.863309549935389
957.0,0.4205287067978423
958.0,0.1690964179598838
959.0,0.06226598144865464
960.0,0.18533419033076717
961.0,0.4869008082746113
962.0,0.17891193430080354
963.0,0.26707023102753735
964.0,0.2165136882100853
965.0,0.13489333916867688
966.0,0.4969183690252215
967.0,0.37786731567199466
968.0,0.4658015878453266
969.0,0.8211442066308307
970.0,0.5289810425101928
971.0,1.2661901253837966
972.0,0.951986197750085
973.0,0.2075733091914763
974.0,0.8998572619157442
975.0,0.8624767901343343
976.0,0.7817006119508305
977.0,0.31591743979511583
978.0,0.24152404076561781
979.0,0.7990441806648583
980.0,0.4323670672341073
981.0,0.18404065129790076
982.0,0.9761638024074965
983.0,1.1526991670689826
984.0,2.297190796791861
985.0,1.854016874233963
986.0,2.914783566865358
987.0,3.899821206395388
988.0,4.307944874628424
989.0,5.495818743282893
990.0,7.1181898911987185
991.0,7.982345417027898
992.0,8.935645119158242
993.0,11.539621930886474
994.0,12.471342470026542
995.0,15.63056570494699
996.0,17.873534836196505
997.0,20.005684414548092
998.0,22.941389452895955
999.0,24.50999397001939
1000.0,24.747775092911617
1001.0,28.120526649320034
1002.0,28.919543357776885
1003.0,31.263938413926788
1004.0,34.03482797408725
1005.0,35.83085615686605
1006.0,37.23338562732568
1007.0,38.36806093532177
1008.0,39.02213545180296
1009.0,39.327827862653216
1010.0,39.27776260932939
1011.0,37.85768349429681
1012.0,36.68448705061892
1013.0,36.04759184996005
1014.0,34.3703891047592
1015.0,31.953405219242303
1016.0,29.93018986809576
1017.0,27.782356617995525
1018.0,24.648359062214052
1019.0,22.296892294422758
1020.0,19.67715710365263
1021.0,19.73945458797343
1022.0,17.502525818497812
1023.0,14.413422404901702
1024.0,11.871017957400307
1025.0,10.084049189226535
1026.0,9.004440450875672
1027.0,8.062435886414951
1028.0,6.425246686360878
1029.0,6.345733134926672
1030.0,4.3141482329816085
1031.0,2.8009577640303065
1032.0,2.0296841195214435
1033.0,1.5609812004284427
1034.0,1.2978823737305323
1035.0,1.3208409974676898
1036.0,1.5842878866719468
1037.0,1.843281456006701
1038.0,0.9899312006916728
1039.0,0.8177591352538994
1040.0,0.8384413349075784
1041.0,1.30838622826918
1042.0,1.9190559154957245
1043.0,3.00624543424215
1044.0,4.0534496163411635
1045.0,4.73445871403086
1046.0,5.815010636656168
1047.0,6.994444137002765
1048.0,8.997529321913243
1049.0,10.93036340249229
1050.0,11.841280433975625
1051.0,15.406619228592602
1052.0,17.905348492004876
1053.0,20.16831740468054
1054.0,24.1186603728308
1055.0,27.763451383269626
1056.0,30.544532600859807
1057.0,36.545339975729235
1058.0,40.76286632901655
1059.0,44.239972463891405
1060.0,48.2863860092632
1061.0,55.356783615682204
1062.0,61.040928689148245
1063.0,65.43457067558508
1064.0,70.05881596936742
1065.0,72.82313745826134
1066.0,76.15832853894453
1067.0,78.29166276835015
1068.0,79.47054546796281
1069.0,79.72348011995214
1070.0,78.89016208216442
1071.0,77.75784263858512
1072.0,76.05684979997358
1073.0,73.3193420897447
1074.0,69.79590754220506
1075.0,66.05137417808365
1076.0,62.52215065605072
1077.0,58.33474925318695
1078.0,54.647322511517295
1079.0,51.39715994187601
1080.0,47.307338219486105
1081.0,42.4747269552156
1082.0,37.74089610432775
1083.0,34.12052107087936
1084.0,31.646042768810506
1085.0,28.48603725573167
1086.0,23.631209028197578
1087.0,21.984996220293795
1088.0,20.278422741625374
1089.0,16.212934497679708
1090.0,14.959928489605353
1091.0,13.334824222018149
1092.0,11.939037629922687
1093.0,11.147178010697962
1094.0,9.893068965970459
1095.0,9.649256214567705
1096.0,7.903444200995217
1097.0,7.345540035285578
1098.0,7.2206516159203655
1099.0,7.494887605782353
1100.0,6.837426951279673
1101.0,5.840236516670514
1102.0,5.903039349124008
1103.0,6.0068578586050485
1104.0,5.4942281669502995
1105.0,5.39414530799616
1106.0,4.160453960553108
1107.0,4.825082056447176
1108.0,4.02744067086785
1109.0,4.107680019298369
1110.0,4.985931162132874
1111.0,5.411055443559262
1112.0,5.237965194716748
1113.0,5.428080407307232
1114.0,6.0012210519720055
1115.0,5.860419025371352
1116.0,5.096159547789608
1117.0,4.962194948276411
1118.0,5.57511327845171
1119.0,5.073052570277131
1120.0,5.314943753730059
1121.0,5.168052693661348
1122.0,5.376645695561738
1123.0,4.5806658244088885
1124.0,3.8422989722091287
1125.0,4.705914894747932
1126.0,4.892402244222509
1127.0,4.437278848898334
1128.0,5.043860611602554
1129.0,5.080379503325002
1130.0,5.613045624440387
1131.0,6.361189613169515
1132.0,5.883665025419904
1133.0,5.887242839067417
1134.0,5.994155210791239
1135.0,5.909214661324832
1136.0,6.756827388264723
1137.0,7.724629113499646
1138.0,7.382148827981862
1139.0,7.670591509575475
1140.0,6.742775407300231
1141.0,6.651551066291647
1142.0,6.870199727699034
1143.0,6.705720259883336
1144.0,6.964399730201978
1145.0,7.077001677165111
1146.0,6.5540601372700635
1147.0,5.943387256056564
1148.0,5.430622106444761
1149.0,5.30866495106155
1150.0,5.22666706392408
1151.0,4.532354499554737
1152.0,3.71935222199378
1153.0,3.38120721068981
1154.0,3.59971928736784
1155.0,2.9095524692406975
1156.0,2.362369025521092
1157.0,2.261531414990336
1158.0,1.789132986384562
1159.0,1.1829550814918215
1160.0,0.12407586760814779
1161.0,0.9587140869025559
1162.0,0.3345335762276233
1163.0,-0.01868341973926473
1164.0,0.3685406263298718
1165.0,0.8476454084858962
1166.0,0.8764243872466754
1167.0,1.059636385701878
1168.0,1.472647898942855
1169.0,1.3221884592726243
1170.0,0.7063795629917734
1171.0,0.7101056367812715
1172.0,0.5964696955695965
1173.0,0.8930548199914268
1174.0,0.10969077643939086
1175.0,0.2275635455772778
1176.0,0.46169022847639624
1177.0,0.8534089727371981
1178.0,0.7661176634931312
1179.0,0.6930033854533691
1180.0,0.6973602949974923
1181.0,0.7933590104730635
1182.0,0.9445061718200554
1183.0,0.14941976177657773
1184.0,1.0597948506782555
1185.0,1.5066947688858154
1186.0,1.430409513553803
1187.0,2.001760079601973
1188.0,2.444460346117647
1189.0,2.7895886154445453
1190.0,2.5907674449144937
1191.0,2.8790690031365846
1192.0,2.837270195677232
1193.0,2.3075591740973467
1194.0,3.1188110980503367
1195.0,3.9500865536947574
1196.0,4.2496364827981274
1197.0,3.357974131567697
1198.0,3.3808891340727114
1199.0,3.718209671487065
1200.0,3.737659362683102
1201.0,3.671446826745126
1202.0,3.9375847610017694
1203.0,4.2476099064783215
1204.0,4.359088683597928
1205.0,4.334371895230174
1206.0,4.492139555990594
1207.0,4.6975275069504985
1208.0,4.339867318879624
1209.0,4.851431283241373
1210.0,5.367445695844865
1211.0,5.283117439299375
1212.0,4.86740637603593
1213.0,5.763855092006364
1214.0,5.510894416499211
1215.0,5.181117207535396
1216.0,5.454942850374597
1217.0,5.5237418058389975
1218.0,5.464831429238376
1219.0,5.738947723758917
1220.0,5.775229558104049
1221.0,5.859212834237894
1222.0,6.238897390518037
1223.0,7.7886311951696445
1224.0,5.835392707949575
1225.0,5.74389620311923
1226.0,5.211339960527528
1227.0,5.370322030028533
1228.0,5.517522978183394
1229.0,4.859569317710248
1230.0,3.836658653076437
1231.0,3.2328762352459472
1232.0,3.534678873417131
1233.0,3.4762164457681157
1234.0,3.008384509342471
1235.0,2.7687568034303984
1236.0,2.108688374091968
1237.0,2.4924892668503063
1238.0,2.4782689968931617
1239.0,2.328121276112976
1240.0,2.03458787601541
1241.0,1.2639120057810158
1242.0,1.0465868064526658
1243.0,1.2614705118564402
1244.0,1.5367453357686673
1245.0,1.4569547991648977
1246.0,0.8291714175845111
1247.0,0.7940124062565163
1248.0,1.0757839141188987
1249.0,1.0947486014659118
1250.0,0.4227554493368178
1251.0,0.8100524550610724
1252.0,0.5097289683607633
1253.0,0.7082580706505197
1254.0,0.623819907102991
1255.0,0.3874994838474459
1256.0,0.10389959010456101
1257.0,0.22132806626095844
1258.0,0.6156907060159499
1259.0,0.42731384699275093
1260.0,0.5315252698536171
1261.0,0.02239129696604896
1262.0,0.6954865813514052
1263.0,0.39208644183654384
1264.0,0.4528716148000247
1265.0,0.5680242681646708
1266.0,0.6982237592442249
1267.0,0.6381863908980248
1268.0,0.9139279472283142
1269.0,0.7390654341804902
1270.0,0.6375597081585785
1271.0,0.7097434042646613
1272.0,0.48221684175762347
1273.0,0.38353428054777733
1274.0,0.6968237539068913
1275.0,1.3598543074544212
1276.0,1.5292595781655614
1277.0,1.1958156363645898
1278.0,1.714913653241742
1279.0,1.5766776429700236
1280.0,0.9691624363448084
1281.0,1.3170328783257648
1282.0,1.296859828364939
1283.0,1.137740371937397
1284.0,1.0444768471596022
1285.0,0.9959561533320869
1286.0,0.9148111326549792
1287.0,0.9441482950013824
1288.0,0.860519806150359
1289.0,0.8324954140500077
1290.0,0.7119080183406196
1291.0,1.0652816399188454
1292.0,0.6279647135989436
1293.0,0.23672616952497857
1294.0,0.8512035825083147
1295.0,0.6088848756076027
1296.0,1.0525417207107823
1297.0,0.5913199860304409
1298.0,0.5649802081630962
1299.0,0.2667173707788719
1300.0,0.004149228452493775
1301.0,0.12814960464196787
1302.0,0.0769753531075184
1303.0,0.07143024560721313
1304.0,0.0
1305.0,0.0
1306.0,0.0
1307.0,0.0
1308.0,0.0
1309.0,0.0
1310.0,0.0
1311.0,0.0
1312.0,0.0
1313.0,0.0
1314.0,0.0
1315.0,0.0
1316.0,0.0
1317.0,0.0
1318.0,0.0
1319.0,0.0
1320.0,0.0
1321.0,0.0
1322.0,0.0
1323.0,0.0
1324.0,0.0
1325.0,0.0
1326.0,0.0
1327.0,0.0
1328.0,0.0
1329.0,0.0
1330.0,0.0
1331.0,0.0
1332.0,0.0
1333.0,0.0
1334.0,0.0
1335.0,0.0
1336.0,0.0
1337.0,0.0
1338.0,0.0
1339.0,0.0
1340.0,0.0
1341.0,0.0
1342.0,0.0
1343.0,0.0
1344.0,0.0
1345.0,0.0
1346.0,0.0
1347.0,0.0
1348.0,0.0
1349.0,0.0
1350.0,0.0
1351.0,0.0
1352.0,0.0
1353.0,0.0
1354.0,0.0
1355.0,0.0
1356.0,0.0
1357.0,0.0
1358.0,0.0
1359.0,0.0
1360.0,0.0
1361.0,0.0
1362.0,0.0
1363.0,0.0
1364.0,0.0
1365.0,0.0
1366.0,0.0
1367.0,0.0
1368.0,0.0
1369.0,0.0
1370.0,0.0
1371.0,0.0
1372.0,0.0
1373.0,0.0
1374.0,0.0
1375.0,0.0
1376.0,0.0
1377.0,0.0
1378.0,0.0
1379.0,0.0
1380.0,0.0
1381.0,0.0
1382.0,0.0
1383.0,0.0
1384.0,0.0
1385.0,0.0
1386.0,0.0
1387.0,0.0
1388.0,0.0
1389.0,0.0
1390.0,0.0
1391.0,0.0
1392.0,0.0
1393.0,0.0
1394.0,0.0
1395.0,0.0
1396.0,0.0
1397.0,0.0
1398.0,0.0
1399.0,0.0
1400.0,0.0
1401.0,0.0
1402.0,0.0
1403.0,0.0
1404.0,0.0
1405.0,0.0
1406.0,0.0
1407.0,0.0
1408.0,0.0
1409.0,0.0
1410.0,0.0
1411.0,0.0
1412.0,0.0
1413.0,0.0
1414.0,0.0
1415.0,0.0
1416.0,0.0
1417.0,0.0
1418.0,0.0
1419.0,0.0
1420.0,0.0
1421.0,0.0
1422.0,0.0
1423.0,0.0
1424.0,0.0
1425.0,0.0
1426.0,0.0
1427.0,0.0
1428.0,0.0
1429.0,0.0
1430.0,0.0
1431.0,0.0
1432.0,0.0
1433.0,0.0
1434.0,0.0
1435.0,0.0
1436.0,0.0
1437.0,0.0
1438.0,0.0
1439.0,0.0
1440.0,0.0
1441.0,0.0
1442.0,0.0
1443.0,0.0
1444.0,0.0
1445.0,0.0
1446.0,0.0
1447.0,0.0
1448.0,0.0
1449.0,0.0
1450.0,0.0
1451.0,0.0
1452.0,0.0
1453.0,0.0
1454.0,0.0
1455.0,0.0
1456.0,0.0
1457.0,0.0
1458.0,0.0
1459.0,0.0
1460.0,0.0
1461.0,0.0
1462.0,0.0
1463.0,0.0
1464.0,0.0
1465.0,0.0
1466.0,0.0
1467.0,0.0
1468.0,0.0
1469.0,0.0
1470.0,0.0
1471.0,0.0
1472.0,0.0
1473.0,0.0
1474.0,0.0
1475.0,0.0
1476.0,0.0
1477.0,0.0
1478.0,0.0
1479.0,0.0
1480.0,0.0
1481.0,0.0
1482.0,0.0
1483.0,0.0
1484.0,0.0
1485.0,0.0
1486.0,0.0
1487.0,0.0
1488.0,0.0
1489.0,0.0
1490.0,0.0
1491.0,0.0
1492.0,0.0
1493.0,0.0
1494.0,0.0
1495.0,0.0
1496.0,0.0
1497.0,0.0
1498.0,0.0
1499.0,0.0
1500.0,0.0
1501.0,0.0
1502.0,0.0
1503.0,0.0
1504.0,0.0
1505.0,0.0
1506.0,0.0
1507.0,0.0
1508.0,0.0
1509.0,0.0
1510.0,0.0
1511.0,0.0
1512.0,0.0
1513.0,0.0
1514.0,0.0
1515.0,0.0
1516.0,0.0
1517.0,0.0
1518.0,0.0
1519.0,0.0
1520.0,0.0
1521.0,0.0
1522.0,0.0
1523.0,0.0
1524.0,0.0
1525.0,0.0
1526.0,0.0
1527.0,0.0
1528.0,0.0
1529.0,0.0
1530.0,0.0
1531.0,0.0
1532.0,0.0
1533.0,0.0
1534.0,0.0
1535.0,0.0
1536.0,0.0
1537.0,0.0
1538.0,0.0
1539.0,0.0
1540.0,0.0
1541.0,0.0
1542.0,0.0
1543.0,0.0
1544.0,0.0
1545.0,0.0
1546.0,0.0
1547.0,0.0
1548.0,0.0
1549.0,0.0
1550.0,0.0
1551.0,0.0
1552.0,0.0
1553.0,0.0
1554.0,0.0
1555.0,0.0
1556.0,0.0
1557.0,0.0
1558.0,0.0
1559.0,0.0
1560.0,0.0
1561.0,0.0
1562.0,0.0
1563.0,0.0
1564.0,0.0
1565.0,0.0
1566.0,0.0
1567.0,0.0
1568.0,0.0
1569.0,0.0
1570.0,0.0
1571.0,0.0
1572.0,0.0
1573.0,0.0
1574.0,0.0
1575.0,0.0
1576.0,0.0
1577.0,0.0
1578.0,0.0
1579.0,0.0
1580.0,0.0
1581.0,0.0
1582.0,0.0
1583.0,0.0
1584.0,0.0
1585.0,0.0
1586.0,0.0
1587.0,0.0
1588.0,0.0
1589.0,0.0
1590.0,0.0
1591.0,0.0
1592.0,0.0
1593.0,0.0
1594.0,0.0
1595.0,0.0
1596.0,0.0
1597.0,0.0
1598.0,0.0
1599.0,0.0
