0.0,0.0
1.0,0.0
2.0,0.0
3.0,0.0
4.0,0.0
5.0,0.0
6.0,0.0
7.0,0.0
8.0,0.0
9.0,0.0
10.0,0.0
11.0,0.0
12.0,0.0
13.0,0.0
14.0,0.0
15.0,0.0
16.0,0.0
17.0,0.0
18.0,0.0
19.0,0.0
20.0,0.0
21.0,0.0
22.0,0.0
23.0,0.0
24.0,0.0
25.0,0.0
26.0,0.0
27.0,0.0
28.0,0.0
29.0,0.0
30.0,0.0
31.0,0.0
32.0,0.0
33.0,0.0
34.0,0.0
35.0,0.0
36.0,0.0
37.0,0.0
38.0,0.0
39.0,0.0
40.0,0.0
41.0,0.0
42.0,0.0
43.0,0.0
44.0,0.0
45.0,0.0
46.0,0.0
47.0,0.0
48.0,0.0
49.0,0.0
50.0,0.0
51.0,0.0
52.0,0.0
53.0,0.0
54.0,0.0
55.0,0.0
56.0,0.0
57.0,0.0
58.0,0.0
59.0,0.0
60.0,0.0
61.0,0.0
62.0,0.0
63.0,0.0
64.0,0.0
65.0,0.0
66.0,0.0
67.0,0.0
68.0,0.0
69.0,0.0
70.0,0.0
71.0,0.0
72.0,0.0
73.0,0.0
74.0,0.0
75.0,0.0
76.0,0.0
77.0,0.0
78.0,0.0
79.0,0.0
80.0,0.0
81.0,0.0
82.0,0.0
83.0,0.0
84.0,0.0
85.0,0.0
86.0,0.0
87.0,0.0
88.0,0.0
89.0,0.0
90.0,0.0
91.0,0.0
92.0,0.0
93.0,0.0
94.0,0.0
95.0,0.0
96.0,0.0
97.0,0.0
98.0,0.0
99.0,0.0
100.0,0.0
101.0,0.0
102.0,0.0
103.0,0.0
104.0,0.0
105.0,0.0
106.0,0.0
107.0,0.0
108.0,0.0
109.0,0.0
110.0,0.0
111.0,0.0
112.0,0.0
113.0,0.0
114.0,0.0
115.0,0.0
116.0,0.0
117.0,0.0
118.0,0.0
119.0,0.0
120.0,0.0
121.0,0.0
122.0,0.0
123.0,0.0
124.0,0.0
125.0,0.0
126.0,0.0
127.0,0.0
128.0,0.0
129.0,0.0
130.0,0.0
131.0,0.0
132.0,0.0
133.0,0.0
134.0,0.0
135.0,0.0
136.0,0.0
137.0,0.0
138.0,0.0
139.0,0.0
140.0,0.0
141.0,0.0
142.0,0.0
143.0,0.0
144.0,0.0
145.0,0.0
146.0,0.0
147.0,0.0
148.0,0.0
149.0,0.0
150.0,0.0
151.0,0.0
152.0,0.0
153.0,0.0
154.0,0.0
155.0,0.0
156.0,-18.905108720130197
157.0,1.6095063292301064
158.0,-0.020025538871327277
159.0,2.0475838553767916
160.0,0.7054123046760963
161.0,0.5988176564264296
162.0,3.1863464328973308
163.0,4.892292162029651
164.0,5.800839727663884
165.0,8.775169581256655
166.0,11.629486476068163
167.0,11.785582691528127
168.0,18.119072901771812
169.0,22.22174756157714
170.0,22.708033302733394
171.0,22.15458907813767
172.0,24.902899980818002
173.0,26.292621458316674
174.0,29.69691402581717
175.0,34.55437499777706
176.0,36.92354431377335
177.0,42.49000464543292
178.0,49.70492436154882
179.0,54.915196065560565
180.0,57.028688956239804
181.0,62.51555393067185
182.0,67.99511378815819
183.0,72.26946070516176
184.0,75.12266264055798
185.0,77.03644103004635
186.0,77.37987637666653
187.0,77.1511670729948
188.0,76.24194802793889
189.0,73.84046116818756
190.0,76.3518734309062
191.0,78.21454641765092
192.0,78.76571550148185
193.0,78.64947894867355
194.0,74.60195278545454
195.0,73.85136301416708
196.0,72.6670052168511
197.0,69.96183784396331
198.0,69.42596211814337
199.0,68.59451586992996
200.0,72.06949608893336
201.0,76.91149161287717
202.0,78.01360852561592
203.0,79.14781315417585
204.0,80.82242051620831
205.0,81.16734597883121
206.0,80.00221196429814
207.0,83.31729539311465
208.0,82.2379074710746
209.0,78.6559752757335
210.0,75.80267571725874
211.0,74.79507643257273
212.0,74.6486239885389
213.0,71.05726820964001
214.0,68.07120618018678
215.0,67.07815970950058
216.0,59.63120968229046
217.0,59.64901840956485
218.0,56.794920203048235
219.0,50.08890810153463
220.0,45.41028435525658
221.0,43.55849200924435
222.0,40.37288512353681
223.0,37.14891809774152
224.0,34.736604449004915
225.0,30.37378675981716
226.0,28.14228014492163
227.0,26.1647332842198
228.0,23.339562419019305
229.0,20.576452846534337
230.0,24.275440672090237
231.0,22.60712524244699
232.0,18.384150479856412
233.0,16.205424568066906
234.0,15.031560170534801
235.0,13.820608154914032
236.0,13.34210354678463
237.0,13.212949858193648
238.0,12.726749057783755
239.0,15.912075882107821
240.0,12.369208559784859
241.0,8.354672905799394
242.0,9.135725558740901
243.0,13.621537267407831
244.0,13.270126230113009
245.0,12.74153412533494
246.0,12.627691196400281
247.0,10.830034723368561
248.0,13.38375023665083
249.0,14.847565383954983
250.0,14.790880372810896
251.0,14.449936487642685
252.0,14.87012625419391
253.0,17.277656902886587
254.0,18.828425786566093
255.0,17.712834942807685
256.0,13.902012962923429
257.0,8.046582009191425
258.0,4.387847057311048
259.0,4.427769123184943
260.0,4.444332213494156
261.0,1.3671502388349839
262.0,3.4039428284358726
263.0,2.719506932284681
264.0,1.2521647783705465
265.0,0.9640540144707881
266.0,0.036189627778373507
267.0,2.138501630138627
268.0,2.5917883227450065
269.0,0.38128311325542247
270.0,2.0377680983725375
271.0,3.5087050666286146
272.0,1.956955136942243
273.0,2.3131110650642377
274.0,4.955509096902757
275.0,2.9364736185639098
276.0,5.668286187654099
277.0,7.248734707511424
278.0,8.170474570261973
279.0,10.707434869664805
280.0,13.240456826813732
281.0,14.553383233025135
282.0,16.66529237321557
283.0,18.761244001751855
284.0,19.88846282040292
285.0,26.1924753429211
286.0,30.499493859911958
287.0,34.701675298254344
288.0,39.426031067667424
289.0,42.6016062158395
290.0,45.895073696358814
291.0,44.39412063591977
292.0,40.37535123672458
293.0,37.228117657047434
294.0,35.91353598876779
295.0,38.87534309561312
296.0,43.46435437555881
297.0,49.455978730377566
298.0,55.033832478606456
299.0,50.08189401777563
300.0,42.152452572919145
301.0,36.63879113770914
302.0,34.273354579228176
303.0,33.50431027305053
304.0,34.89829437789588
305.0,35.369785765682664
306.0,36.137815457995686
307.0,38.147322031021886
308.0,41.17942754404437
309.0,40.73890003910351
310.0,45.16889132612074
311.0,51.60471869639798
312.0,56.753038939588016
313.0,64.10221822070508
314.0,75.78919498647309
315.0,89.59668915018193
316.0,104.10073844868158
317.0,118.85211020144904
318.0,135.8440054701996
319.0,155.032880732256
320.0,173.9335755168803
321.0,188.53463019718916
322.0,192.81435192365447
323.0,179.68991049622718
324.0,150.0149668848775
325.0,110.02280854928
326.0,72.65948057406924
327.0,48.667897097794636
328.0,30.565698430216223
329.0,20.253464597320043
330.0,14.715677248560825
331.0,10.346502997669273
332.0,5.643000585859721
333.0,4.907571897348939
334.0,5.814565836342801
335.0,4.099155238882761
336.0,0.7124405217466805
337.0,3.2695794627837707
338.0,1.3690997122938597
339.0,2.56580232579768
340.0,3.457630494170946
341.0,1.4946476748456514
342.0,2.3045894161769827
343.0,2.7671255487130697
344.0,0.6317698138837476
345.0,0.6576659615411685
346.0,2.74795216691497
347.0,1.0401016330472554
348.0,0.35430831349172154
349.0,0.9943017278769097
350.0,0.7659675277854383
351.0,1.2262580502887366
352.0,1.1891507748139154
353.0,1.083572126298762
354.0,2.6981147949759685
355.0,3.407530031591733
356.0,0.892968679626177
357.0,0.5959954469592625
358.0,1.8035595667945994
359.0,1.8825668244415892
360.0,1.9062648275651974
361.0,1.8847209082510974
362.0,1.0953267958666535
363.0,2.66539285539095
364.0,1.139833992333859
365.0,1.4736239107281743
366.0,1.9195433362943382
367.0,0.8423370074547848
368.0,0.3163400848844508
369.0,0.47164963328492826
370.0,2.0479812888770406
371.0,3.1372091832656195
372.0,1.4569099600482829
373.0,1.721942408867799
374.0,2.617814695122139
375.0,3.8549043580482745
376.0,6.144041170966681
377.0,12.441510395481412
378.0,15.141394513779186
379.0,17.236537525658786
380.0,21.461196119083638
381.0,28.80559144808927
382.0,33.89015730486474
383.0,36.34661286040175
384.0,34.883304684503926
385.0,34.78716942099591
386.0,42.033695042055044
387.0,50.628941623961964
388.0,64.66275778414469
389.0,82.14389977994402
390.0,100.75768880490745
391.0,122.34676123837431
392.0,152.105740154375
393.0,183.7703724070223
394.0,210.26014282927017
395.0,227.29416033428168
396.0,231.27596111642188
397.0,217.17173480634256
398.0,191.61275496077639
399.0,154.3831480529435
400.0,119.9475280298166
401.0,95.2160747729756
402.0,73.33083349075591
403.0,58.72653979892094
404.0,48.91375210803272
405.0,39.64356557954904
406.0,30.36234281680204
407.0,23.90317863283182
408.0,21.514653552296632
409.0,19.317968444822235
410.0,18.9843280232177
411.0,19.223497474407807
412.0,16.83278289232045
413.0,16.768341996736748
414.0,20.149678767238143
415.0,21.73751563684978
416.0,23.42430973068084
417.0,30.3858624462655
418.0,35.65398901719032
419.0,41.37849481606888
420.0,47.98781638740571
421.0,53.967772855582965
422.0,57.14409523231838
423.0,55.06884304280653
424.0,48.02697736234011
425.0,38.37434443568547
426.0,29.377575721699568
427.0,22.58536691861909
428.0,15.537777799392934
429.0,12.820342477283695
430.0,11.078535158639369
431.0,7.811013434468103
432.0,4.94956212351922
433.0,6.304224601527182
434.0,10.042348923566882
435.0,11.73574977677969
436.0,13.36902808387127
437.0,16.89163030449119
438.0,22.764529868078707
439.0,29.891313808698207
440.0,36.75047041176926
441.0,44.23207384886712
442.0,52.601000718310814
443.0,61.325044665437595
444.0,67.85677544916817
445.0,70.3451964723807
446.0,71.30784241316263
447.0,74.91420440126187
448.0,80.02606075443448
449.0,80.65122593690529
450.0,76.68722878393673
451.0,68.18722857905018
452.0,58.08645189996144
453.0,46.6314601418815
454.0,33.79508936115664
455.0,27.570731886622447
456.0,23.146500127284906
457.0,16.53819826487929
458.0,11.18144351259444
459.0,10.520296556408152
460.0,6.624744548674439
461.0,2.746855543578417
462.0,3.5993812515674244
463.0,3.701937260583503
464.0,1.0234944479233385
465.0,1.9972017763481231
466.0,3.4676384666119544
467.0,1.5543508423794823
468.0,0.08655421768736214
469.0,0.5169300229858291
470.0,2.0315200424683475
471.0,0.9501447259689848
472.0,1.5526735012008457
473.0,1.5228581190909098
474.0,1.8609029695210724
475.0,2.7980030376170633
476.0,0.019691974857109017
477.0,1.6518346821272967
478.0,1.4418092489244945
479.0,1.3083285083815743
480.0,2.306251173176948
481.0,1.886596878418015
482.0,0.14104797810544473
483.0,0.06822093318128511
484.0,0.2496038779756538
485.0,0.5291751830743118
486.0,1.149493618199619
487.0,2.427049404052336
488.0,0.35518127519751747
489.0,0.16587359495612594
490.0,0.5546585471321437
491.0,1.2172148499225144
492.0,1.1446336325232618
493.0,1.023822111156155
494.0,2.130422676281161
495.0,1.4613252373168222
496.0,1.7776847924201058
497.0,0.48826288004205387
498.0,1.125559716302889
499.0,1.157689793742203
500.0,0.44455391011447537
501.0,0.5214901216221043
502.0,1.785108850067249
503.0,2.8016922348969393
504.0,1.8204468827734075
505.0,6.140290786858429
506.0,4.562445410193415
507.0,3.7170596468368
508.0,5.863645185181419
509.0,5.45445755861687
510.0,9.439726105794765
511.0,10.213597113905504
512.0,12.15616524651661
513.0,12.6589282681912
514.0,12.721965961282828
515.0,19.992734567384158
516.0,21.725053543604414
517.0,28.52340363552408
518.0,32.11968856068147
519.0,35.49600756789791
520.0,43.95732269479195
521.0,49.249341149278806
522.0,56.02619362105265
523.0,61.52265096509635
524.0,72.22224667870367
525.0,86.17544404788396
526.0,92.69016431079127
527.0,99.12975593036077
528.0,100.02828524599325
529.0,99.77619545556486
530.0,93.95623762524804
531.0,81.54790233389592
532.0,69.5512947184572
533.0,58.65962660640929
534.0,49.74880458991909
535.0,41.37652909435756
536.0,34.597820672576404
537.0,29.594440613352855
538.0,21.72999581609527
539.0,20.10736938284658
540.0,15.552412733567184
541.0,13.015802206165025
542.0,11.474964971170742
543.0,6.606461147036695
544.0,7.5384177390841325
545.0,7.987188904882378
546.0,5.940851064296373
547.0,3.433005122632832
548.0,2.9140716235684603
549.0,4.617281945586495
550.0,3.256287467400693
551.0,2.2622587557714313
552.0,1.2832645222956036
553.0,0.7220782179796057
554.0,1.156550224680658
555.0,2.9044462369187367
556.0,3.087364464899849
557.0,2.2327130159449236
558.0,1.9619741233089045
559.0,2.0091328165654603
560.0,3.1660347051092814
561.0,6.718951773742624
562.0,7.605366522350225
563.0,6.247296912570304
564.0,7.088137702961726
565.0,6.404774049587458
566.0,1.6222910079141082
567.0,2.379052394504808
568.0,2.2813338012547346
569.0,1.6242117703300676
570.0,3.573774611087359
571.0,5.138702075638955
572.0,3.761660345354046
573.0,7.176165281357951
574.0,10.486349246092322
575.0,11.25444662563486
576.0,10.396835513110872
577.0,10.218955556395555
578.0,12.037547394907012
579.0,15.65263689129303
580.0,17.22554626656899
581.0,19.74984755357438
582.0,21.62477849353472
583.0,20.405549522579456
584.0,16.91222591780497
585.0,16.057816154281564
586.0,13.164049943420409
587.0,12.241485069997957
588.0,10.265066457857843
589.0,8.765047386738058
590.0,8.008412130930543
591.0,5.018037162667996
592.0,6.317465104809413
593.0,4.429014473485588
594.0,3.027419583490422
595.0,1.889589481597257
596.0,0.4483584814630729
597.0,0.24825901942648695
598.0,0.1610059911778122
599.0,1.7809859268713288
600.0,0.534929161430993
601.0,1.7230228317059526
602.0,1.6339386940736773
603.0,0.9896207888343542
604.0,1.6928231386513135
605.0,1.9462275937684295
606.0,3.9879969336925902
607.0,3.800146987510173
608.0,1.7810258796993876
609.0,2.209416899294236
610.0,3.521744902677806
611.0,1.5972737233278476
612.0,2.7062737449273504
613.0,2.2549856416828447
614.0,1.5485644897046495
615.0,3.2573810056986714
616.0,4.524010308398087
617.0,8.231176956752243
618.0,8.884399437841287
619.0,8.198848053810101
620.0,9.506877530544706
621.0,12.539684503964658
622.0,13.035189500472207
623.0,15.969531616045817
624.0,15.51983270256383
625.0,14.511880437031763
626.0,12.46091993722728
627.0,10.434180865103011
628.0,10.026523045351608
629.0,4.696760001241789
630.0,4.95975851078949
631.0,4.2924687237790184
632.0,2.7788621816035795
633.0,1.5207185801833827
634.0,1.0432509737283981
635.0,1.0979702629670738
636.0,2.4478730172213674
637.0,1.6371445145078207
638.0,3.233509637502212
639.0,0.6254704241171195
640.0,1.2207049706467117
641.0,0.13618742631937011
642.0,0.5950075911761231
643.0,0.39038132819345045
644.0,0.32491205877842977
645.0,0.9371844179979288
646.0,0.5763587791888026
647.0,0.7126806645144339
648.0,2.7470276348035885
649.0,3.1458308043041607
650.0,3.5165276341884812
651.0,2.801804788910822
652.0,1.7085368276380377
653.0,1.5796719793094758
654.0,2.6756818349385374
655.0,2.752456672875146
656.0,4.335602163953291
657.0,4.513985795847732
658.0,3.350484177796327
659.0,4.130309067355795
660.0,6.745467856590624
661.0,6.187340506780959
662.0,10.574846951067288
663.0,12.993877856946993
664.0,14.415655735766839
665.0,18.525515951466897
666.0,23.433210258883918
667.0,24.253356009300138
668.0,30.751965900901265
669.0,37.54831789316654
670.0,45.779697310000024
671.0,54.22277005612113
672.0,64.93783022924333
673.0,80.69497645685884
674.0,99.8178999290782
675.0,121.78527726615229
676.0,156.86926952014846
677.0,193.5376774278951
678.0,243.68078187949007
679.0,311.82495284437033
680.0,387.5663253423436
681.0,481.9744510258668
682.0,571.0010174017543
683.0,655.2059376763551
684.0,699.8139055502995
685.0,678.2739733562224
686.0,597.2640291908301
687.0,486.2845718122746
688.0,376.226442010451
689.0,286.6926250372181
690.0,219.42852797887488
691.0,171.36259204050805
692.0,136.7915253433433
693.0,111.18164855167994
694.0,93.18233436385188
695.0,79.04316027386447
696.0,67.41777321981684
697.0,56.036467371341786
698.0,48.11619760264897
699.0,43.49063465526504
700.0,38.72530498530027
701.0,31.83876930854525
702.0,28.67622329130987
703.0,24.497341306664676
704.0,23.360121574497082
705.0,22.696380894476437
706.0,20.321444395849955
707.0,16.935650384820157
708.0,14.067985357579454
709.0,12.757225542495938
710.0,9.92341643542177
711.0,8.513824926890202
712.0,7.951445057447147
713.0,7.333991694711536
714.0,6.359056506397932
715.0,5.454903121368794
716.0,7.340893048101719
717.0,2.5718479184573257
718.0,-0.04584911921724465
719.0,1.4655293293961076
720.0,2.319487437105388
721.0,0.21993309382809914
722.0,0.17005769043224644
723.0,1.799779589982929
724.0,3.734179719109694
725.0,3.190014831716722
726.0,1.0073282114921476
727.0,0.13183156296742166
728.0,0.6092851284832957
729.0,0.2512593296339874
730.0,0.6153758998467428
731.0,2.1298032667955167
732.0,1.4618633987586618
733.0,0.16985425530329626
734.0,1.5493853424003772
735.0,1.682339662694502
736.0,0.4972032442018312
737.0,0.06793496703115018
738.0,0.16920639744835853
739.0,0.9731238495522029
740.0,1.8855207314232332
741.0,2.084544097569729
742.0,2.576556236221464
743.0,4.124516327910274
744.0,3.769182017696077
745.0,2.3877987756761736
746.0,4.1165947368162135
747.0,4.831377362724503
748.0,3.9126221785920716
749.0,4.291630289977493
750.0,5.613881588328846
751.0,3.453488705360306
752.0,3.1443323922670303
753.0,4.397932974420448
754.0,5.112181769145157
755.0,4.350491496430744
756.0,4.354231504109447
757.0,6.049800059162312
758.0,7.373139432428717
759.0,10.825911052789463
760.0,9.210995920295167
761.0,11.889463185105546
762.0,13.851032291877651
763.0,14.519130026360777
764.0,17.501139059031583
765.0,21.731982413165838
766.0,22.161898241089084
767.0,22.275569443328575
768.0,25.190200092284062
769.0,28.702419649331087
770.0,31.34571145387995
771.0,31.900960462490804
772.0,29.92794372837663
773.0,27.71417436306859
774.0,23.4037735147074
775.0,17.148098269380156
776.0,18.283485337852685
777.0,15.063871355911827
778.0,10.587127076792791
779.0,10.092839485063491
780.0,8.851174848527043
781.0,10.719989264587369
782.0,8.732282096613845
783.0,5.228662342312013
784.0,6.9552277500704704
785.0,7.786792316979264
786.0,5.88537646875228
787.0,4.703338665675835
788.0,4.571194157155054
789.0,5.227340858429683
790.0,2.3326617112777357
791.0,5.151795974187561
792.0,4.8487541341976765
793.0,3.3534769516618
794.0,3.4040225383356226
795.0,3.542364517509712
796.0,3.1631404176479267
797.0,0.11962207346321764
798.0,1.3419939859041992
799.0,2.100804042056445
800.0,0.5255981420503988
801.0,0.945499607523169
802.0,2.783471822111971
803.0,0.3984343323619475
804.0,1.0140693142700197
805.0,1.805226881518167
806.0,1.1423653573021904
807.0,0.5116694330293211
808.0,1.7382555593841065
809.0,3.8351831019523432
810.0,5.815667848720639
811.0,2.0507185447127974
812.0,2.3292429997253703
813.0,1.219689409720759
814.0,3.2943071905006795
815.0,2.443564287285542
816.0,1.0093666135339028
817.0,0.9682926441767344
818.0,0.9912100328644976
819.0,0.5434506026821683
820.0,1.6914625037585085
821.0,0.795033417067535
822.0,2.730929261052947
823.0,4.926602075408258
824.0,2.3549522271553207
825.0,1.3233756141448725
826.0,1.8287057018422141
827.0,0.4260031631073622
828.0,1.605189044958832
829.0,2.140758727372846
830.0,1.7169709867429905
831.0,3.429872817741228
832.0,2.4605563353637763
833.0,0.8484633190639755
834.0,1.5596912334574273
835.0,2.68893710729077
836.0,3.101185559287093
837.0,2.099256474691994
838.0,3.0320912035573144
839.0,2.616918937303054
840.0,0.7101729415268703
841.0,1.587430872557907
842.0,2.5801792143789424
843.0,0.34854087786737414
844.0,0.300338480274737
845.0,1.5764187452296279
846.0,2.5003699874510223
847.0,1.8292724745878022
848.0,0.9154478989002038
849.0,2.4235796387708093
850.0,3.220899352350999
851.0,3.744007870483456
852.0,4.169978776402779
853.0,4.12914140428257
854.0,4.643591723251317
855.0,2.3541826888634305
856.0,1.244644474707585
857.0,2.4577682316536897
858.0,3.814054921961484
859.0,3.719326311013165
860.0,3.359055804116521
861.0,3.796395073600801
862.0,1.538148167665277
863.0,0.5009958034995162
864.0,2.597885123472414
865.0,1.9522761787523604
866.0,1.1882161036245096
867.0,2.5929645885508705
868.0,2.5154286302600313
869.0,0.10291470556838964
870.0,1.458840166832374
871.0,0.2685223402785773
872.0,1.196216974200982
873.0,3.6740844951945215
874.0,3.157304057970555
875.0,1.6839704776276616
876.0,0.4820397302556841
877.0,0.839174488073625
878.0,3.185586378325381
879.0,1.482752108015367
880.0,1.0724928414923043
881.0,0.19840170007901822
882.0,0.4472916690394908
883.0,2.1341774396091755
884.0,3.136322712430684
885.0,3.9497861755641646
886.0,4.209340395636371
887.0,2.7843776547348162
888.0,3.5062130722188303
889.0,0.03185017526469899
890.0,2.340049426648279
891.0,4.038502604301471
892.0,5.240611870311835
893.0,6.5822341460523734
894.0,5.975784254156465
895.0,4.655594869801042
896.0,6.224387912262625
897.0,7.353938975925354
898.0,4.86543476815355
899.0,5.346968647992515
900.0,7.927824595060531
901.0,9.102428695008946
902.0,9.145756193604988
903.0,9.202896679621643
904.0,8.899035086678033
905.0,8.5681031663243
906.0,15.391366395058952
907.0,14.702328776210221
908.0,16.797319832768526
909.0,15.581610097439961
910.0,15.230601613345389
911.0,17.06978801053507
912.0,18.097299260923037
913.0,19.483290886967488
914.0,22.90063548058777
915.0,21.287370962518466
916.0,19.803636411493436
917.0,21.22966532859639
918.0,21.722707774069626
919.0,19.27908013084411
920.0,18.05931104402495
921.0,15.016689081816883
922.0,10.659216814000054
923.0,9.991986884080168
924.0,9.453635227222048
925.0,9.277817163719737
926.0,7.42864027019787
927.0,4.832198665644465
928.0,6.717062273782575
929.0,6.36474943066649
930.0,5.463378547045228
931.0,5.078968477055376
932.0,4.306104508010543
933.0,4.9659937150579365
934.0,6.591217179051113
935.0,3.3202559347386242
936.0,2.6032088854079807
937.0,2.4323155275248007
938.0,2.4015157968668848
939.0,2.2199756583494605
940.0,2.071168742426242
941.0,3.03686236361092
942.0,2.131505816884568
943.0,0.36789349457683224
944.0,1.4904992645112458
945.0,4.288039720314341
946.0,1.014473616460253
947.0,1.000636317229946
948.0,0.36245294359130426
949.0,0.8766119941708439
950.0,1.82967928683989
951.0,0.887238353131792
952.0,0.6856494553196028
953.0,2.4690730366288443
954.0,0.45310766880104186
955.0,0.6518575398996301
956.0,0.37964948900571727
957.0,0.0329871136525554
958.0,0.24156054217222703
959.0,0.8544966282728713
960.0,0.08477363476682398
961.0,1.1197067807363235
962.0,2.7947971623200103
963.0,0.1315585435681142
964.0,1.3757401848813269
965.0,1.8257010946764836
966.0,1.475670184151008
967.0,0.8879096415212072
968.0,0.4944068915132942
969.0,0.7896992238095709
970.0,0.6428211072876465
971.0,0.6484370559140012
972.0,0.870465715837107
973.0,1.1619858309538489
974.0,2.323455436629672
975.0,0.9849804584791412
976.0,0.31204829850810245
977.0,0.7788457093315622
978.0,0.1599458946324292
979.0,0.5635031111765835
980.0,0.9378046376191596
981.0,0.17364997273121316
982.0,0.5564360066382019
983.0,2.881189641280709
984.0,3.1588232568279633
985.0,2.6443428623072385
986.0,2.5109734874649403
987.0,1.5610601411171017
988.0,5.431699789464516
989.0,5.209059554622505
990.0,7.514135391047978
991.0,9.837647378094314
992.0,12.103557887370895
993.0,14.528611422451434
994.0,15.98587520680613
995.0,19.41125740536358
996.0,21.515471020681154
997.0,25.926102613234903
998.0,31.91831046761446
999.0,38.1176834338742
1000.0,41.22544842452295
1001.0,43.79778581929628
1002.0,50.5807230197746
1003.0,58.584522900275694
1004.0,65.29637012047222
1005.0,72.07578383536226
1006.0,80.8380009789874
1007.0,94.6556513726211
1008.0,106.56610465240577
1009.0,118.48929170301105
1010.0,130.70332956345496
1011.0,135.26870000000002
1012.0,138.44651553431171
1013.0,134.21573502769647
1014.0,121.63886241153857
1015.0,107.95284997097198
1016.0,93.30662326027861
1017.0,76.5560740007472
1018.0,65.88082349084206
1019.0,56.128105185478674
1020.0,42.153032200995135
1021.0,37.81279809693448
1022.0,30.499239951797307
1023.0,26.483265106018845
1024.0,23.628235063305024
1025.0,19.83744177899996
1026.0,16.681763530583364
1027.0,13.254423203929994
1028.0,9.803205310136569
1029.0,10.788039106707762
1030.0,8.95086097829376
1031.0,9.04570006963936
1032.0,9.021475614026564
1033.0,6.467497163172177
1034.0,4.96737689416862
1035.0,5.737536340016171
1036.0,7.670660151631935
1037.0,7.876283626265062
1038.0,7.171738785766735
1039.0,7.2983284186699295
1040.0,7.390264356651502
1041.0,7.221587874310738
1042.0,9.900878408235059
1043.0,9.428600354364454
1044.0,9.622153774003223
1045.0,9.765988646130191
1046.0,8.72924812480363
1047.0,11.690692565300532
1048.0,16.455658799471383
1049.0,18.254152433594285
1050.0,21.499243218452946
1051.0,22.97118701199287
1052.0,22.8326336617091
1053.0,32.275963909727245
1054.0,37.04843759670099
1055.0,43.403281864008136
1056.0,49.086171502980854
1057.0,57.49983934324508
1058.0,67.62670867247591
1059.0,79.88348351943908
1060.0,92.00338784615988
1061.0,111.21122339290794
1062.0,133.89250216374472
1063.0,152.29249080426126
1064.0,169.98656944173004
1065.0,188.7681554764466
1066.0,202.04279768291417
1067.0,217.58330685640146
1068.0,220.6622896541744
1069.0,216.8725783081085
1070.0,206.22476254773963
1071.0,189.59067535234553
1072.0,168.11110597215574
1073.0,145.48740533411956
1074.0,125.01534114016893
1075.0,108.13837928751705
1076.0,92.90567813047949
1077.0,81.92103372590881
1078.0,75.45091944349961
1079.0,64.66129753643224
1080.0,55.58633151629783
1081.0,51.66113693489736
1082.0,45.30518825768217
1083.0,41.13281025902511
1084.0,36.026817979981146
1085.0,35.157032006750896
1086.0,30.04100770657879
1087.0,27.984198195239568
1088.0,25.190708433911155
1089.0,20.875231176603496
1090.0,19.269344530586352
1091.0,18.148677874103754
1092.0,15.762113212917779
1093.0,15.231043671966205
1094.0,14.794427688768897
1095.0,10.480848788280838
1096.0,8.189244848202684
1097.0,11.456453393636899
1098.0,8.743691709836504
1099.0,6.225580139764507
1100.0,10.071963636899598
1101.0,6.793701041976859
1102.0,4.6230262513601605
1103.0,3.2802398479117363
1104.0,1.1876099884043103
1105.0,1.944160539125865
1106.0,0.8269709165467393
1107.0,1.7354861013648224
1108.0,3.1104546238453583
1109.0,0.4458617486298166
1110.0,-0.10294905309849971
1111.0,0.386389588805532
1112.0,1.8063747903100205
1113.0,1.2294937801614125
1114.0,0.6664986705162965
1115.0,2.4650990517625195
1116.0,2.4587506781280575
1117.0,0.8071635296683585
1118.0,1.1762429800288288
1119.0,1.6938192552920297
1120.0,1.8777840986176286
1121.0,1.4359694616573393
1122.0,0.09423559138211772
1123.0,0.4083783964040926
1124.0,1.862664779518633
1125.0,1.8424849467276458
1126.0,1.7318927669739705
1127.0,1.1690286325209454
1128.0,0.6545766823532404
1129.0,0.6766373466331335
1130.0,4.046337291097245
1131.0,3.6320392582837107
1132.0,1.7823394407937454
1133.0,0.5701275400536973
1134.0,0.9995993546206867
1135.0,1.3227209239368298
1136.0,0.8149592417929801
1137.0,1.0251450530987913
1138.0,1.4466021101263447
1139.0,0.9861867417344105
1140.0,-0.11705571265499252
1141.0,3.260743287055183
1142.0,1.5272796179432828
1143.0,1.476572164930931
1144.0,0.8659521958565705
1145.0,0.27635920074978304
1146.0,0.8537320026528344
1147.0,0.8269743605854641
1148.0,0.5143650335895273
1149.0,0.6312204580399213
1150.0,0.677324180167523
1151.0,0.5153498019231424
1152.0,0.9760923152576885
1153.0,1.4010176358743918
1154.0,0.022591982617142042
1155.0,0.18141282323892852
1156.0,0.7494849530265515
1157.0,1.9793458341687915
1158.0,0.7168627344791202
1159.0,2.143290336094844
1160.0,2.9811552091500397
1161.0,0.2928771652869264
1162.0,1.2271944267802015
1163.0,1.181968139947638
1164.0,1.5668156185705036
1165.0,2.650462443584998
1166.0,0.3842674535346964
1167.0,2.708303543368898
1168.0,5.537272321779068
1169.0,4.150328052285936
1170.0,-0.05321108472444683
1171.0,2.259795441985689
1172.0,1.8157033444501396
1173.0,0.5441572698490463
1174.0,2.8601318968099227
1175.0,2.868825658269361
1176.0,2.996785693475676
1177.0,3.6908216460736307
1178.0,2.2595398047352395
1179.0,1.1443572099191668
1180.0,4.911252386724307
1181.0,6.272744855711535
1182.0,4.807665924917131
1183.0,4.8667670104545975
1184.0,5.16949646623731
1185.0,5.011964656542244
1186.0,5.332016240506121
1187.0,4.190349812250892
1188.0,3.8003212104904947
1189.0,6.237208407606561
1190.0,7.459469334414459
1191.0,5.391433408227128
1192.0,4.066344615868431
1193.0,3.3482488774740715
1194.0,4.586807835896758
1195.0,4.61044969341288
1196.0,7.603246111446106
1197.0,5.861763479386285
1198.0,4.724504145311954
1199.0,5.6631243876077555
1200.0,5.027262556551308
1201.0,5.869343033772322
1202.0,6.857139869919172
1203.0,4.244910836669229
1204.0,2.3828504325293984
1205.0,2.2528593862197788
1206.0,2.156185135012404
1207.0,4.542537567271712
1208.0,4.885524085116899
1209.0,5.4740953248200315
1210.0,5.179424990263763
1211.0,1.5586046640042208
1212.0,4.903817423049969
1213.0,4.982461765943879
1214.0,5.244744452615431
1215.0,4.617256471218652
1216.0,4.477111387733643
1217.0,6.137491484273586
1218.0,5.500454304048145
1219.0,4.044369418958722
1220.0,4.505186887760932
1221.0,5.101873372966018
1222.0,5.975275499176026
1223.0,7.4874026049190965
1224.0,7.854067406919645
1225.0,8.399728347391825
1226.0,10.523937699199612
1227.0,12.587420537839725
1228.0,10.34052082765104
1229.0,7.836451365920012
1230.0,9.157553367773287
1231.0,9.810014575944443
1232.0,9.535850812323417
1233.0,11.944994189998136
1234.0,11.584131120608827
1235.0,12.35942422505977
1236.0,15.984057181693824
1237.0,19.95011494491281
1238.0,21.539417943201677
1239.0,24.06329996499201
1240.0,29.229186552313543
1241.0,32.558608670660604
1242.0,37.706948818430135
1243.0,40.23903092121912
1244.0,41.90889259862628
1245.0,39.4476870850061
1246.0,32.65468780415541
1247.0,28.514557223807483
1248.0,26.042940361015642
1249.0,22.086416022929324
1250.0,17.708373602474794
1251.0,16.587635173597057
1252.0,12.16850527023669
1253.0,11.549677145463876
1254.0,10.130756059195269
1255.0,9.288787103394418
1256.0,4.522466263732918
1257.0,4.500639698947393
1258.0,6.118781967469974
1259.0,6.3601401448018535
1260.0,6.908598064621974
1261.0,6.072007307144581
1262.0,6.268986770430257
1263.0,7.627558035792451
1264.0,6.992710871512823
1265.0,5.028479693014114
1266.0,4.9615259959029085
1267.0,4.264943785671112
1268.0,2.813534372103911
1269.0,3.8047936333416543
1270.0,4.961554418995959
1271.0,5.73072458059623
1272.0,2.377660492597297
1273.0,1.1312127607344094
1274.0,4.842788669008571
1275.0,1.3983389206828498
1276.0,1.296357152156621
1277.0,4.8774981058812195
1278.0,3.3807092508167877
1279.0,6.9412914908359475
1280.0,7.652934610114824
1281.0,2.8727379790301364
1282.0,2.7632153725246114
1283.0,3.351188370356711
1284.0,0.06703247431368281
1285.0,0.6391404940226054
1286.0,0.0
1287.0,0.0
1288.0,0.0
1289.0,0.0
1290.0,0.0
1291.0,0.0
1292.0,0.0
1293.0,0.0
1294.0,0.0
1295.0,0.0
1296.0,0.0
1297.0,0.0
1298.0,0.0
1299.0,0.0
1300.0,0.0
1301.0,0.0
1302.0,0.0
1303.0,0.0
1304.0,0.0
1305.0,0.0
1306.0,0.0
1307.0,0.0
1308.0,0.0
1309.0,0.0
1310.0,0.0
1311.0,0.0
1312.0,0.0
1313.0,0.0
1314.0,0.0
1315.0,0.0
1316.0,0.0
1317.0,0.0
1318.0,0.0
1319.0,0.0
1320.0,0.0
1321.0,0.0
1322.0,0.0
1323.0,0.0
1324.0,0.0
1325.0,0.0
1326.0,0.0
1327.0,0.0
1328.0,0.0
1329.0,0.0
1330.0,0.0
1331.0,0.0
1332.0,0.0
1333.0,0.0
1334.0,0.0
1335.0,0.0
1336.0,0.0
1337.0,0.0
1338.0,0.0
1339.0,0.0
1340.0,0.0
1341.0,0.0
1342.0,0.0
1343.0,0.0
1344.0,0.0
1345.0,0.0
1346.0,0.0
1347.0,0.0
1348.0,0.0
1349.0,0.0
1350.0,0.0
1351.0,0.0
1352.0,0.0
1353.0,0.0
1354.0,0.0
1355.0,0.0
1356.0,0.0
1357.0,0.0
1358.0,0.0
1359.0,0.0
1360.0,0.0
1361.0,0.0
1362.0,0.0
1363.0,0.0
1364.0,0.0
1365.0,0.0
1366.0,0.0
1367.0,0.0
1368.0,0.0
1369.0,0.0
1370.0,0.0
1371.0,0.0
1372.0,0.0
1373.0,0.0
1374.0,0.0
1375.0,0.0
1376.0,0.0
1377.0,0.0
1378.0,0.0
1379.0,0.0
1380.0,0.0
1381.0,0.0
1382.0,0.0
1383.0,0.0
1384.0,0.0
1385.0,0.0
1386.0,0.0
1387.0,0.0
1388.0,0.0
1389.0,0.0
1390.0,0.0
1391.0,0.0
1392.0,0.0
1393.0,0.0
1394.0,0.0
1395.0,0.0
1396.0,0.0
1397.0,0.0
1398.0,0.0
1399.0,0.0
1400.0,0.0
1401.0,0.0
1402.0,0.0
1403.0,0.0
1404.0,0.0
1405.0,0.0
1406.0,0.0
1407.0,0.0
1408.0,0.0
1409.0,0.0
1410.0,0.0
1411.0,0.0
1412.0,0.0
1413.0,0.0
1414.0,0.0
1415.0,0.0
1416.0,0.0
1417.0,0.0
1418.0,0.0
1419.0,0.0
1420.0,0.0
1421.0,0.0
1422.0,0.0
1423.0,0.0
1424.0,0.0
1425.0,0.0
1426.0,0.0
1427.0,0.0
1428.0,0.0
1429.0,0.0
1430.0,0.0
1431.0,0.0
1432.0,0.0
1433.0,0.0
1434.0,0.0
1435.0,0.0
1436.0,0.0
1437.0,0.0
1438.0,0.0
1439.0,0.0
1440.0,0.0
1441.0,0.0
1442.0,0.0
1443.0,0.0
1444.0,0.0
1445.0,0.0
1446.0,0.0
1447.0,0.0
1448.0,0.0
1449.0,0.0
1450.0,0.0
1451.0,0.0
1452.0,0.0
1453.0,0.0
1454.0,0.0
1455.0,0.0
1456.0,0.0
1457.0,0.0
1458.0,0.0
1459.0,0.0
1460.0,0.0
1461.0,0.0
1462.0,0.0
1463.0,0.0
1464.0,0.0
1465.0,0.0
1466.0,0.0
1467.0,0.0
1468.0,0.0
1469.0,0.0
1470.0,0.0
1471.0,0.0
1472.0,0.0
1473.0,0.0
1474.0,0.0
1475.0,0.0
1476.0,0.0
1477.0,0.0
1478.0,0.0
1479.0,0.0
1480.0,0.0
1481.0,0.0
1482.0,0.0
1483.0,0.0
1484.0,0.0
1485.0,0.0
1486.0,0.0
1487.0,0.0
1488.0,0.0
1489.0,0.0
1490.0,0.0
1491.0,0.0
1492.0,0.0
1493.0,0.0
1494.0,0.0
1495.0,0.0
1496.0,0.0
1497.0,0.0
1498.0,0.0
1499.0,0.0
1500.0,0.0
1501.0,0.0
1502.0,0.0
1503.0,0.0
1504.0,0.0
1505.0,0.0
1506.0,0.0
1507.0,0.0
1508.0,0.0
1509.0,0.0
1510.0,0.0
1511.0,0.0
1512.0,0.0
1513.0,0.0
1514.0,0.0
1515.0,0.0
1516.0,0.0
1517.0,0.0
1518.0,0.0
1519.0,0.0
1520.0,0.0
1521.0,0.0
1522.0,0.0
1523.0,0.0
1524.0,0.0
1525.0,0.0
1526.0,0.0
1527.0,0.0
1528.0,0.0
1529.0,0.0
1530.0,0.0
1531.0,0.0
1532.0,0.0
1533.0,0.0
1534.0,0.0
1535.0,0.0
1536.0,0.0
1537.0,0.0
1538.0,0.0
1539.0,0.0
1540.0,0.0
1541.0,0.0
1542.0,0.0
1543.0,0.0
1544.0,0.0
1545.0,0.0
1546.0,0.0
1547.0,0.0
1548.0,0.0
1549.0,0.0
1550.0,0.0
1551.0,0.0
1552.0,0.0
1553.0,0.0
1554.0,0.0
1555.0,0.0
1556.0,0.0
1557.0,0.0
1558.0,0.0
1559.0,0.0
1560.0,0.0
1561.0,0.0
1562.0,0.0
1563.0,0.0
1564.0,0.0
1565.0,0.0
1566.0,0.0
1567.0,0.0
1568.0,0.0
1569.0,0.0
1570.0,0.0
1571.0,0.0
1572.0,0.0
1573.0,0.0
1574.0,0.0
1575.0,0.0
1576.0,0.0
1577.0,0.0
1578.0,0.0
1579.0,0.0
1580.0,0.0
1581.0,0.0
1582.0,0.0
1583.0,0.0
1584.0,0.0
1585.0,0.0
1586.0,0.0
1587.0,0.0
1588.0,0.0
1589.0,0.0
1590.0,0.0
1591.0,0.0
1592.0,0.0
1593.0,0.0
1594.0,0.0
1595.0,0.0
1596.0,0.0
1597.0,0.0
1598.0,0.0
1599.0,0.0
