0.0,0.0
1.0,0.0
2.0,0.0
3.0,0.0
4.0,0.0
5.0,0.0
6.0,0.0
7.0,0.0
8.0,0.0
9.0,0.0
10.0,0.0
11.0,0.0
12.0,0.0
13.0,0.0
14.0,0.0
15.0,0.0
16.0,0.0
17.0,0.0
18.0,0.0
19.0,0.0
20.0,0.0
21.0,0.0
22.0,0.0
23.0,0.0
24.0,0.0
25.0,0.0
26.0,0.0
27.0,0.0
28.0,0.0
29.0,0.0
30.0,0.0
31.0,0.0
32.0,0.0
33.0,0.0
34.0,0.0
35.0,0.0
36.0,0.0
37.0,0.0
38.0,0.0
39.0,0.0
40.0,0.0
41.0,0.0
42.0,0.0
43.0,0.0
44.0,0.0
45.0,0.0
46.0,0.0
47.0,0.0
48.0,0.0
49.0,0.0
50.0,0.0
51.0,0.0
52.0,0.0
53.0,0.0
54.0,0.0
55.0,0.0
56.0,0.0
57.0,0.0
58.0,0.0
59.0,0.0
60.0,0.0
61.0,0.0
62.0,0.0
63.0,0.0
64.0,0.0
65.0,0.0
66.0,0.0
67.0,0.0
68.0,0.0
69.0,0.0
70.0,0.0
71.0,0.0
72.0,0.0
73.0,0.0
74.0,0.0
75.0,0.0
76.0,0.0
77.0,0.0
78.0,0.0
79.0,0.0
80.0,0.0
81.0,0.0
82.0,0.0
83.0,0.0
84.0,0.0
85.0,0.0
86.0,0.0
87.0,0.0
88.0,0.0
89.0,0.0
90.0,0.0
91.0,0.0
92.0,0.0
93.0,0.0
94.0,0.0
95.0,0.0
96.0,0.0
97.0,0.0
98.0,0.0
99.0,0.0
100.0,0.0
101.0,0.0
102.0,0.0
103.0,0.0
104.0,0.0
105.0,0.0
106.0,0.0
107.0,0.0
108.0,0.0
109.0,0.0
110.0,0.0
111.0,0.0
112.0,0.0
113.0,0.0
114.0,0.0
115.0,0.0
116.0,0.0
117.0,0.0
118.0,0.0
119.0,0.0
120.0,0.0
121.0,0.0
122.0,0.0
123.0,0.0
124.0,0.0
125.0,0.0
126.0,0.0
127.0,0.1887880914492289
128.0,0.5621577802722968
129.0,2.3863655762567193
130.0,2.228294060538576
131.0,1.6195627647366435
132.0,2.5385768135360887
133.0,3.17136054070935
134.0,3.102231663662478
135.0,4.597311334842737
136.0,7.099311131176797
137.0,10.610385159224325
138.0,14.536340821279145
139.0,16.996909091794045
140.0,18.224246172124133
141.0,18.34431608387804
142.0,17.590996542892967
143.0,16.17312146802454
144.0,15.270163443713013
145.0,14.314681283413435
146.0,13.009625794825656
147.0,11.252870478321771
148.0,9.060559786867913
149.0,7.714435393203846
150.0,7.193036618445063
151.0,7.073914606953919
152.0,5.685015232901668
153.0,5.256673393052795
154.0,5.196777626807223
155.0,5.431710949446666
156.0,6.936224045919773
157.0,3.4150473924285993
158.0,3.2181538248319073
159.0,4.6682072832454935
160.0,2.228272850703952
161.0,2.202497070602303
162.0,2.8700843435858228
163.0,2.891428956398981
164.0,2.0348614562192013
165.0,1.9092786932830248
166.0,1.7195353874537505
167.0,1.3026301258790822
168.0,1.0713888438598225
169.0,2.9162585411878434
170.0,3.9160172169318805
171.0,4.100022870470709
172.0,4.042709780550701
173.0,4.4345280581346005
174.0,3.9102950660932776
175.0,3.70608299164144
176.0,3.8039772923241815
177.0,3.7722753489921272
178.0,3.3547346482536944
179.0,3.9860643751005194
180.0,5.275930559624603
181.0,6.0760461768805545
182.0,5.260344745638788
183.0,5.263166634222335
184.0,5.58923523911237
185.0,5.822629623137364
186.0,5.785851029564682
187.0,5.038001797487967
188.0,4.464336318122205
189.0,4.0563728500355785
190.0,3.6099261021089943
191.0,3.047916242015485
192.0,2.030844876424082
193.0,1.6389929463854171
194.0,1.6687217239373608
195.0,0.9358284310700127
196.0,0.062472858410710874
197.0,0.3398602996770828
198.0,0.8181530930455827
199.0,0.4294247960266834
200.0,0.6227759478555841
201.0,0.26408017351823726
202.0,0.7293368264631791
203.0,0.0945202470514279
204.0,0.08547388484900344
205.0,0.7389481450745038
206.0,0.8675474520446398
207.0,0.6257697921611408
208.0,0.6620209229926299
209.0,0.8191286402884937
210.0,1.0121040526652478
211.0,0.7264861419601201
212.0,0.05022786180088968
213.0,0.20562489287897204
214.0,0.12559648396676346
215.0,0.1109303806752568
216.0,0.7381672781240881
217.0,0.6605822917996764
218.0,0.8622273482224126
219.0,1.4013636621427046
220.0,1.5296871703862098
221.0,1.239570591556291
222.0,2.48230954065748
223.0,2.3374224318697365
224.0,3.0126651249861762
225.0,4.108840988354987
226.0,3.5627708954535615
227.0,5.051883312043599
228.0,5.249101936319102
229.0,5.2154054390050035
230.0,6.00609935714007
231.0,5.87554607902504
232.0,7.09545751433135
233.0,7.848589527783005
234.0,7.784732714895149
235.0,7.96960005925155
236.0,9.618222057252163
237.0,9.261152906720563
238.0,8.97536309361596
239.0,10.40390476962886
240.0,11.421077612618825
241.0,11.765173702219784
242.0,11.609989119240895
243.0,11.6325281601008
244.0,12.642372638924533
245.0,13.944102991351222
246.0,15.210572026994857
247.0,15.5005998579163
248.0,14.979594189643196
249.0,16.126908312128826
250.0,17.392100154446794
251.0,17.66272848068849
252.0,17.07415120294126
253.0,16.27506767247782
254.0,14.40620210473511
255.0,10.832766916245742
256.0,7.574449179883453
257.0,5.7251270268325785
258.0,4.356280276768442
259.0,2.995368653193182
260.0,1.7955791739863716
261.0,0.8191655489310526
262.0,0.09030466571201691
263.0,0.17277088945438568
264.0,0.49055373003909847
265.0,0.7480473351590216
266.0,0.31381489961502856
267.0,0.1069195665735287
268.0,0.3105441472992601
269.0,0.09144944461714791
270.0,0.6766833453843075
271.0,0.6589016158555233
272.0,1.4760353512915767
273.0,1.1060767379393381
274.0,0.9242041731416702
275.0,1.2817138931278222
276.0,1.5785449202138353
277.0,1.5670028174062345
278.0,2.0064576615934935
279.0,2.54908664661559
280.0,2.9902740791982043
281.0,3.693867271875083
282.0,4.496360853249983
283.0,4.828765442575734
284.0,4.920100986858099
285.0,5.3007037504553445
286.0,6.07271084475336
287.0,7.4616368970009
288.0,8.342423820666607
289.0,8.807486636401194
290.0,9.929466259291475
291.0,10.866260567018239
292.0,12.532109221069856
293.0,13.766314484385717
294.0,13.861954530791678
295.0,14.081256228502285
296.0,16.45665829047932
297.0,16.877184726801
298.0,16.765043446433317
299.0,18.43871958621446
300.0,17.59059193325603
301.0,18.32637359615999
302.0,19.391276453997094
303.0,20.061435399208346
304.0,20.987982467186832
305.0,22.84037031549534
306.0,24.452275581588893
307.0,26.4470082351227
308.0,29.27952938372452
309.0,32.569961720004265
310.0,35.974315948826934
311.0,39.75586133813048
312.0,43.78322903393813
313.0,47.959822633764354
314.0,52.45173952550179
315.0,57.43713573662335
316.0,63.72895870586913
317.0,71.29553727447671
318.0,79.78120065318804
319.0,89.91199443459865
320.0,102.76686293407217
321.0,117.18631472355763
322.0,131.98025698919582
323.0,146.5035378348693
324.0,159.8451528831106
325.0,164.21413024127202
326.0,159.58835946253384
327.0,146.22227304606574
328.0,119.57042322255077
329.0,92.61618095432996
330.0,69.59888216376068
331.0,50.78464163018994
332.0,36.289078629223546
333.0,28.717085513505513
334.0,21.65050626852754
335.0,16.161474143837324
336.0,12.368120446464836
337.0,9.307200061342469
338.0,6.43458260378994
339.0,5.354684839841567
340.0,3.9836046853225016
341.0,2.331471040394388
342.0,2.5284358738485597
343.0,1.8081959751002517
344.0,0.41484604279459636
345.0,0.32462279647847914
346.0,1.2508586715514185
347.0,0.244581298741219
348.0,0.08930516057290065
349.0,0.26447122317617733
350.0,0.3674636114706453
351.0,0.08856899150220256
352.0,0.3008007120526275
353.0,0.8844889442250957
354.0,0.22809866691486416
355.0,0.17243591561465443
356.0,0.69287451989213
357.0,0.0931119214613956
358.0,0.20642246993785662
359.0,0.19462843553949458
360.0,0.1655763494300832
361.0,0.6195177729444771
362.0,0.034235059719724285
363.0,-0.0024231363156871633
364.0,0.4072506186620558
365.0,0.708254453036442
366.0,0.10160666018739677
367.0,0.8344187236677939
368.0,0.9686795446285529
369.0,1.672274285434926
370.0,2.651004990618318
371.0,2.18750794277992
372.0,3.5501011310967927
373.0,4.785773630229734
374.0,5.4783484927859325
375.0,6.112302360031548
376.0,7.4963794240193
377.0,8.695337684179556
378.0,10.777162253229143
379.0,13.088906083717795
380.0,15.276279914023885
381.0,17.90572636866872
382.0,21.179855354247614
383.0,25.160969965171905
384.0,29.821590099494237
385.0,35.284846492096
386.0,41.53733286495701
387.0,46.013700212859995
388.0,51.17224528330537
389.0,59.22627340017998
390.0,69.37093255066186
391.0,78.25539567624895
392.0,88.05025297996909
393.0,99.13928798026939
394.0,112.19840644846309
395.0,127.3716117714946
396.0,143.5855910773988
397.0,159.76882829702106
398.0,175.2029419566335
399.0,187.59964920594933
400.0,193.20390181331007
401.0,187.00262239326256
402.0,173.69794673831467
403.0,151.39934373157965
404.0,126.1116332202357
405.0,102.96749379024705
406.0,82.89733101075818
407.0,65.03206337277452
408.0,50.919968782326755
409.0,41.313692428123524
410.0,34.902786264858655
411.0,28.658017393164734
412.0,25.275845569179015
413.0,21.320522487994445
414.0,17.90674692462679
415.0,16.302778716155462
416.0,14.973531091475358
417.0,12.988708404673424
418.0,11.982688536145304
419.0,10.879109851530039
420.0,9.611046392172582
421.0,9.68249118830895
422.0,9.079801837123018
423.0,8.434347927460227
424.0,7.668237358799463
425.0,6.955263700679844
426.0,6.9206805935345574
427.0,5.834310233579852
428.0,5.1351290025178775
429.0,4.596378771488112
430.0,4.248870684610099
431.0,4.6438214344390865
432.0,4.377065409033922
433.0,4.84043382221372
434.0,5.610731302824092
435.0,6.363970327289547
436.0,7.229075952707457
437.0,7.6978545501719635
438.0,10.137581980237547
439.0,11.889734908827576
440.0,12.597659762452666
441.0,13.975441299866702
442.0,15.851694414718148
443.0,16.711677993845676
444.0,17.22062508675973
445.0,17.794423956728014
446.0,18.386494017063587
447.0,18.278463957355672
448.0,17.19168825623709
449.0,15.743657400843983
450.0,14.111149090577737
451.0,12.45574131790375
452.0,11.406869509558783
453.0,9.941852547096905
454.0,8.721280741481404
455.0,8.172160478849305
456.0,7.909499292628466
457.0,6.441049467971443
458.0,5.0966815731278405
459.0,5.296668087286154
460.0,5.200082434537014
461.0,4.128394881829609
462.0,3.908457879779295
463.0,3.1462295110416125
464.0,2.3986333866678557
465.0,1.8759212757432877
466.0,1.5830556291556845
467.0,1.4535120280967786
468.0,1.285168397444137
469.0,0.6071426455657541
470.0,0.23307729498077748
471.0,0.14073686752236444
472.0,0.11611098286097477
473.0,-0.0020954163560400803
474.0,0.2599511735134424
475.0,0.4759687338742107
476.0,0.5474215160342291
477.0,0.7707877064968459
478.0,1.2880090998849456
479.0,0.20933196386170694
480.0,0.3261121094051559
481.0,0.49437448167918896
482.0,0.5253161157060313
483.0,0.6445005782034134
484.0,0.5860139616872007
485.0,0.22288995677779355
486.0,0.010109301723832252
487.0,0.05569771582359461
488.0,0.15021943779277352
489.0,0.9709153773665301
490.0,0.4499526799821492
491.0,0.5011612755718367
492.0,0.7145334544496932
493.0,-0.005733401685380418
494.0,0.8852128501451659
495.0,0.970312678928899
496.0,1.3215056560318161
497.0,1.4207211257171255
498.0,1.0041171745640403
499.0,1.4230449279841018
500.0,2.644963533818841
501.0,1.8868580214344133
502.0,1.6649309336904654
503.0,2.3934361317982753
504.0,1.8095105112465948
505.0,3.2001831688735556
506.0,3.5080474039074367
507.0,3.736304411062459
508.0,4.014971485925254
509.0,3.953679107028984
510.0,4.5705732245259565
511.0,5.401178638262751
512.0,5.629025949621593
513.0,6.227828772319936
514.0,7.467531066763626
515.0,8.102656580029917
516.0,9.595987471771824
517.0,10.426141260720144
518.0,11.281182907385407
519.0,12.461450988571176
520.0,13.518085714889004
521.0,13.938919613906519
522.0,14.546532915203732
523.0,15.748187428057983
524.0,16.705337702104032
525.0,17.018697040919758
526.0,17.926418420260095
527.0,17.80078567936435
528.0,17.768054238221758
529.0,17.870808064245544
530.0,17.548512666722786
531.0,16.673973328939905
532.0,16.971143942701243
533.0,16.488245109235546
534.0,15.769210066186302
535.0,15.215296226451725
536.0,15.032299981481088
537.0,15.719353926405944
538.0,14.051859272945368
539.0,12.898090327347024
540.0,11.820941778107871
541.0,10.734797174278466
542.0,10.379438244060195
543.0,8.905115515540245
544.0,7.550003803183011
545.0,6.9234777205403155
546.0,6.3034892003821765
547.0,5.141383777887398
548.0,3.9844570342000467
549.0,3.212127633986956
550.0,2.707995458125926
551.0,2.2917074507460495
552.0,1.9717831070179324
553.0,1.8447215530168426
554.0,1.6009709557997025
555.0,1.420449126251102
556.0,1.0660127190058197
557.0,0.6496557224133225
558.0,0.38509518061248726
559.0,0.3212854455414059
560.0,0.680789385745995
561.0,0.5345624949049954
562.0,0.5036965980279585
563.0,0.5611853197562122
564.0,0.3890546350481136
565.0,0.9996943617943355
566.0,1.041655234043867
567.0,1.025878369774032
568.0,1.2350358810790467
569.0,1.8357714724091734
570.0,2.706535771724216
571.0,2.165432241758808
572.0,2.0896994150424923
573.0,2.8678669792521236
574.0,3.2687335592983704
575.0,2.9351137433814753
576.0,4.221258368776621
577.0,4.250044212144612
578.0,3.8004979628650606
579.0,3.709888342372199
580.0,3.5817264841894105
581.0,2.793492987340056
582.0,3.055855301626749
583.0,2.1464233996356783
584.0,1.5000744487409414
585.0,1.1767007100613747
586.0,1.1797879003205445
587.0,1.8751346268185975
588.0,1.2202550435248538
589.0,0.8690562841895153
590.0,0.4403997754339565
591.0,0.36520470791649284
592.0,0.8101220683119046
593.0,0.519396905381297
594.0,0.0805014183837917
595.0,0.5091120462841827
596.0,0.2056097533211544
597.0,0.3539346264129044
598.0,1.3657659203895987
599.0,0.936681515286673
600.0,0.6491759790300256
601.0,0.43159893068414645
602.0,0.24546941134497657
603.0,0.24609289694495573
604.0,0.5438622621039984
605.0,0.5256970155057304
606.0,0.6906457360604046
607.0,0.17153979260664667
608.0,0.593668773178642
609.0,0.8835496515524951
610.0,1.2981249505158465
611.0,1.3686811409149946
612.0,2.2905167151893284
613.0,3.4017050827496296
614.0,4.6142042353973345
615.0,5.952367869053826
616.0,7.250810547585415
617.0,9.176562850249466
618.0,9.819381258540316
619.0,10.492007399733051
620.0,11.679030428291663
621.0,12.197406327310722
622.0,10.416000281649186
623.0,9.6840774347774
624.0,7.355502979513762
625.0,5.127197753300725
626.0,3.686801745615013
627.0,2.6666986956431242
628.0,1.79704153012086
629.0,1.3378040208352335
630.0,1.7713752013801098
631.0,1.6697988940909179
632.0,1.1304245605577048
633.0,1.0481435920354274
634.0,1.1385080554399438
635.0,1.5924401454069106
636.0,1.6832651597028938
637.0,1.695624238152295
638.0,1.8997874576663725
639.0,2.3579818214083534
640.0,2.920127807801381
641.0,2.662350986767026
642.0,3.306823098505245
643.0,3.75233726600246
644.0,3.971847164842497
645.0,4.578983488881823
646.0,4.366488818077134
647.0,4.305208193174999
648.0,4.713540166165356
649.0,5.195379033975104
650.0,5.624558166437864
651.0,6.1048763010430545
652.0,6.536252148559507
653.0,7.137951153399445
654.0,8.501971656861485
655.0,9.419341479326587
656.0,9.526411749988934
657.0,9.766242122903773
658.0,10.693873809478015
659.0,11.503093394762503
660.0,12.953751309430498
661.0,14.418846460997154
662.0,16.411304140947486
663.0,19.157448407838977
664.0,20.785612052817104
665.0,24.407008062198646
666.0,29.101157394475372
667.0,33.30984308867223
668.0,38.16328629061291
669.0,45.397376763407486
670.0,54.66481731267717
671.0,65.50345414372217
672.0,78.00305350288761
673.0,94.31317469410928
674.0,112.83057048682267
675.0,131.5476506992151
676.0,152.0158558177441
677.0,178.91074382272046
678.0,207.95683446354172
679.0,241.61434789347263
680.0,280.77245681748303
681.0,326.7439886341638
682.0,381.2724857215017
683.0,440.69712471869366
684.0,506.4718256726924
685.0,570.4939729585549
686.0,620.8445236889372
687.0,642.9153354410039
688.0,624.4075396278262
689.0,562.0057292038323
690.0,476.2360816885829
691.0,385.9369827657639
692.0,306.02072009574016
693.0,241.1411421556174
694.0,190.7260714433948
695.0,153.57849117971585
696.0,125.28896526127699
697.0,105.26337607278019
698.0,88.47039962860697
699.0,73.98251846616667
700.0,63.37012320789308
701.0,55.92487789413506
702.0,48.69291442972825
703.0,42.32052492365277
704.0,36.47657330656085
705.0,31.864437480739202
706.0,28.61866940198374
707.0,25.256068304488497
708.0,21.23742703549466
709.0,19.401702256983647
710.0,17.72788762173687
711.0,15.497656106720445
712.0,13.770633942796723
713.0,13.127447089653776
714.0,11.226786799480205
715.0,9.728689296465697
716.0,8.76765896323565
717.0,8.007870336669981
718.0,6.937695909904747
719.0,6.01576792217275
720.0,6.396799470872782
721.0,4.786873031222663
722.0,4.02994198653548
723.0,3.6591966976172325
724.0,3.483706776933137
725.0,3.1379812431593925
726.0,2.1172427330369796
727.0,1.8884117632851494
728.0,1.8898050140624123
729.0,1.7267130901500454
730.0,1.1324776652590733
731.0,0.886254302411439
732.0,1.2753330831345953
733.0,0.3932948911060059
734.0,0.03715230562616241
735.0,1.8771478275119269
736.0,1.7631613074162724
737.0,0.2690169756675891
738.0,0.3166847153769032
739.0,0.008948069611499253
740.0,0.5895408690055811
741.0,0.40601538858664665
742.0,0.06874666921508252
743.0,0.12825056321057499
744.0,0.43699992775951435
745.0,0.4718781452801433
746.0,0.19815734908585675
747.0,0.5321403284132756
748.0,0.5379733710732889
749.0,0.5694263235650341
750.0,0.32204527304157654
751.0,0.03365912771073466
752.0,0.0740648388558044
753.0,0.22394761490033813
754.0,0.29022133559676294
755.0,0.04362424233621778
756.0,0.17385230017500403
757.0,0.3186673303191019
758.0,0.06709974347405807
759.0,0.4694188086859114
760.0,1.0344683863504474
761.0,0.9086429441366858
762.0,1.204973422515941
763.0,1.31975095361643
764.0,1.472653235576271
765.0,2.114696794219828
766.0,1.7447361636610463
767.0,1.590766345140961
768.0,2.150648837174149
769.0,2.1171460140549123
770.0,1.8944993347303514
771.0,1.7196017874610212
772.0,1.360435563890839
773.0,2.339959545025264
774.0,1.5344251373508409
775.0,1.1896423710503576
776.0,0.811714064453225
777.0,0.9339500111691492
778.0,1.5839872194588542
779.0,1.5008147615109302
780.0,1.413901314592737
781.0,1.3151499047874198
782.0,1.245227501455317
783.0,1.4231583666510943
784.0,1.5614234808326821
785.0,1.1517244529007342
786.0,0.31055169131853394
787.0,0.4857506897799995
788.0,0.8813154270043002
789.0,0.5422755420231832
790.0,0.18280964271417785
791.0,0.1853948691080496
792.0,0.47425294229829573
793.0,0.9773469272997146
794.0,0.37153785469873524
795.0,0.146815614707506
796.0,0.2596131372396971
797.0,0.3127364665791104
798.0,0.22846042144925663
799.0,0.2954415954088574
800.0,0.5322445268925059
801.0,0.43236654831149507
802.0,0.2966153728519333
803.0,0.31180744175852243
804.0,0.2784244295525103
805.0,0.043473116811712675
806.0,0.0107823270898061
807.0,0.7573367149278029
808.0,0.1869266011780115
809.0,0.5661561538691438
810.0,0.18281681871466257
811.0,0.31606051409296504
812.0,0.06310005785039668
813.0,0.043813678423884984
814.0,0.30944414108793816
815.0,0.08491044893580107
816.0,0.07167601971026406
817.0,0.06731026413301873
818.0,0.028537822039082925
819.0,0.032793152167437806
820.0,0.20794621456566553
821.0,0.1186418501242831
822.0,0.15894046959515526
823.0,0.07486973961017218
824.0,0.043964457103491936
825.0,0.2561478334698124
826.0,0.18066879286966397
827.0,0.6503781139087124
828.0,0.3017911549127481
829.0,0.9365917889001618
830.0,0.7416718719205809
831.0,0.5514860940012477
832.0,0.6255867218749451
833.0,0.5491391287247298
834.0,0.3577415915915884
835.0,0.879041266313401
836.0,0.5597505828127599
837.0,0.6110038862077933
838.0,1.1049070437612434
839.0,1.1371023061255097
840.0,0.7953930371164374
841.0,0.6800097027338687
842.0,0.9179640587116731
843.0,1.2456403295477383
844.0,1.6080993304308022
845.0,1.7154654961918836
846.0,1.5702944017944451
847.0,1.5139242489060825
848.0,1.4754835427293447
849.0,1.239822197218671
850.0,1.8360540408384702
851.0,1.4358412761501418
852.0,1.8750814096463286
853.0,1.1822414628100295
854.0,1.2011015708522155
855.0,2.0541618358676934
856.0,1.9999506444218165
857.0,1.705745792732668
858.0,1.4992151792393993
859.0,1.7470178773532785
860.0,2.200466033511592
861.0,2.532071295036714
862.0,2.2505243211757295
863.0,1.6904400047966315
864.0,1.9549536287430067
865.0,1.8717870176388756
866.0,2.5976993755410698
867.0,2.5621762925518805
868.0,2.37415839150697
869.0,2.174908173757326
870.0,2.0625459700886193
871.0,2.100133136473013
872.0,1.7175503672915429
873.0,1.8611048057090094
874.0,1.954861989007232
875.0,2.6091449010223533
876.0,2.5795099483745014
877.0,2.0831648340311757
878.0,1.9779644391735371
879.0,2.0714895050004145
880.0,2.131290583412467
881.0,2.174585915643186
882.0,2.1772659489192367
883.0,2.7974905866527564
884.0,2.884689686443844
885.0,2.542089491570297
886.0,2.9202055494530885
887.0,3.0637328483393564
888.0,2.7091953617790185
889.0,3.3499612747904135
890.0,3.34760561023787
891.0,3.612656588047108
892.0,3.661210533239768
893.0,3.318234932754147
894.0,3.6146144369065962
895.0,3.3656209881977097
896.0,3.4270895594852373
897.0,3.718524266484789
898.0,3.855768898937582
899.0,3.9470927883878106
900.0,4.091430111400966
901.0,4.3040020310973945
902.0,4.593502958911741
903.0,4.462930151985674
904.0,4.938271065424581
905.0,5.425657412031527
906.0,6.038609878076331
907.0,5.9539671520762205
908.0,5.649376620070534
909.0,6.072818928882628
910.0,6.290369569643724
911.0,6.046790010639931
912.0,7.222577276775384
913.0,7.208056633926089
914.0,6.7639998627524465
915.0,7.30482416814353
916.0,8.089048221438661
917.0,7.856394300186565
918.0,7.733012545828977
919.0,8.22177417845628
920.0,8.281057092819296
921.0,7.8142771922416046
922.0,7.9747407750858965
923.0,8.37626007497644
924.0,8.271811836367728
925.0,7.8757821117872515
926.0,7.920450508484204
927.0,7.8430481161205305
928.0,7.513172657656119
929.0,7.988628180180524
930.0,7.770268465590139
931.0,7.318660140108555
932.0,7.459505637722355
933.0,7.729016835941648
934.0,6.963782597497119
935.0,6.611715125873252
936.0,6.3000892014517165
937.0,6.312903210340472
938.0,5.7216462556528365
939.0,5.479659349470664
940.0,5.623915880677821
941.0,5.227786911866341
942.0,4.977733236849781
943.0,4.5554302818763155
944.0,4.2394174664798046
945.0,4.6410655430991605
946.0,4.233163691535111
947.0,3.887882019950397
948.0,3.8641399495064706
949.0,3.688651431593844
950.0,3.889163342128185
951.0,3.5469839611143676
952.0,3.7628433969391932
953.0,3.1169317773756067
954.0,2.8068397891092696
955.0,2.5249594468281633
956.0,2.4215409017365195
957.0,2.6367307341020205
958.0,2.3011674447787946
959.0,2.0644510839246437
960.0,1.7698952428746662
961.0,1.2812326630372568
962.0,0.6532493781874883
963.0,0.7527607230521247
964.0,1.130636567418939
965.0,1.1686325728638394
966.0,0.8628915530387274
967.0,0.035804210743867054
968.0,0.3603252785976066
969.0,0.3646050102048467
970.0,0.20043465546319242
971.0,0.4236474082669932
972.0,0.8035562407509831
973.0,0.5830720045769123
974.0,0.2603396094211186
975.0,0.81081478825856
976.0,1.108688453161283
977.0,1.3240707435806571
978.0,1.4141689847533472
979.0,1.6234046441567074
980.0,1.5595399869944193
981.0,1.6709194794791835
982.0,2.0575890914813737
983.0,2.1964216236827854
984.0,2.4451407290742435
985.0,2.1712814681227757
986.0,2.805446462293574
987.0,1.8261781266206782
988.0,1.6511488323102703
989.0,1.224938426500862
990.0,0.14472479374385425
991.0,0.4404690659426061
992.0,0.9438757870037691
993.0,1.5119194497691781
994.0,2.6992330360086285
995.0,4.375629386716811
996.0,5.547884359654826
997.0,7.53851647676079
998.0,9.309166334772442
999.0,10.917120466646807
1000.0,13.489523515343135
1001.0,15.79187439767963
1002.0,17.59363712917779
1003.0,20.14520461209753
1004.0,23.000747041721162
1005.0,24.95422047205977
1006.0,26.892616247197775
1007.0,29.59657754828182
1008.0,32.070692092090226
1009.0,33.41483929625757
1010.0,34.61380719074701
1011.0,34.34573694145317
1012.0,34.5956851116146
1013.0,31.978716975118136
1014.0,30.40215270223162
1015.0,29.007435063954006
1016.0,26.16569759673302
1017.0,23.494410094738484
1018.0,22.389253493812397
1019.0,19.939310896657418
1020.0,17.644818539053304
1021.0,15.584619791615506
1022.0,13.826013848348266
1023.0,12.675079052533043
1024.0,10.754766178092753
1025.0,9.182450346212578
1026.0,8.7472566193944
1027.0,8.207124654188094
1028.0,7.519716000930165
1029.0,7.169589788503047
1030.0,6.671315841598823
1031.0,6.175902127219584
1032.0,6.326299159224589
1033.0,6.623354827521313
1034.0,7.549965166253957
1035.0,9.612882351464425
1036.0,11.624371230962337
1037.0,12.001698135210374
1038.0,13.629309738984007
1039.0,15.981573913129303
1040.0,17.704241042709953
1041.0,21.955099991046477
1042.0,25.637071244543755
1043.0,29.0499871125331
1044.0,33.0516912804677
1045.0,38.15473872183564
1046.0,45.21519358140782
1047.0,52.944019349290905
1048.0,59.77974718039929
1049.0,69.8240327236169
1050.0,79.01887807220959
1051.0,91.48375842347984
1052.0,105.06144510797769
1053.0,119.31640953383328
1054.0,136.84802283287968
1055.0,156.7271659608505
1056.0,174.88585021918215
1057.0,196.70541431669415
1058.0,219.49984114964445
1059.0,244.71061766594346
1060.0,273.11042177892256
1061.0,299.14169506638456
1062.0,324.85260878348345
1063.0,349.49324126442673
1064.0,371.54148499456244
1065.0,391.1607573853408
1066.0,402.5743952793679
1067.0,411.08566415585346
1068.0,413.77728306349036
1069.0,409.68510219614325
1070.0,403.3858094076347
1071.0,390.75261984442506
1072.0,375.2284753622165
1073.0,358.79599268850643
1074.0,338.5376067997672
1075.0,315.5306884432051
1076.0,294.0364730869537
1077.0,272.14479511635716
1078.0,250.0312631083236
1079.0,224.92933560510312
1080.0,205.60671913980008
1081.0,188.16459113470012
1082.0,170.79195506823905
1083.0,153.70358174640234
1084.0,137.00422983144844
1085.0,122.64911525661144
1086.0,111.54203135093944
1087.0,99.7071341571027
1088.0,89.10212600421849
1089.0,79.21827018361545
1090.0,71.25264131380096
1091.0,64.33078763009838
1092.0,59.03055841478979
1093.0,54.27134494869841
1094.0,48.36219386768389
1095.0,43.29520762138657
1096.0,40.42602007315734
1097.0,36.134782902201025
1098.0,32.727888808585945
1099.0,30.577835036576197
1100.0,28.460182931617403
1101.0,26.619950000588435
1102.0,24.88352657318677
1103.0,23.22861611448568
1104.0,21.790447923437412
1105.0,20.37006851691778
1106.0,19.028721010433195
1107.0,17.50223054506332
1108.0,16.19682213270665
1109.0,14.386482195004579
1110.0,15.304979527563072
1111.0,14.95851169581141
1112.0,13.808260073669855
1113.0,13.601921907329874
1114.0,13.355424516023714
1115.0,12.639221024439708
1116.0,13.730367907509397
1117.0,12.447875522831774
1118.0,12.476455454374612
1119.0,12.808128443084984
1120.0,12.291939626068233
1121.0,11.504557783413755
1122.0,12.695146646528297
1123.0,13.87777375792394
1124.0,12.75037391991161
1125.0,11.291200108347121
1126.0,12.067837071235562
1127.0,12.667032317604907
1128.0,13.233128449286223
1129.0,13.542532881616133
1130.0,14.94887286013883
1131.0,15.701889379804802
1132.0,16.280522248942006
1133.0,17.309692540925532
1134.0,18.831806705644645
1135.0,20.117656307240868
1136.0,20.61760550448899
1137.0,20.80252772212684
1138.0,20.727596827746712
1139.0,21.680705530880264
1140.0,22.39901257594974
1141.0,23.134956124694927
1142.0,24.083653643496703
1143.0,23.736308346216145
1144.0,22.69847612494971
1145.0,22.973529206738817
1146.0,23.046967859688582
1147.0,21.58671004365448
1148.0,21.11153980592033
1149.0,19.240603434806967
1150.0,19.206909422394403
1151.0,17.71983791787873
1152.0,15.5569209548748
1153.0,14.544620067317412
1154.0,13.147775641264577
1155.0,11.247171100665547
1156.0,9.301652462455472
1157.0,7.664827361797381
1158.0,5.961982722581949
1159.0,3.9367491886487698
1160.0,3.111478923764514
1161.0,1.8578415712043819
1162.0,1.0889360123697713
1163.0,0.19273124142753603
1164.0,0.7702865712902273
1165.0,1.8622145083912793
1166.0,1.7646795326230513
1167.0,1.2523332956069706
1168.0,1.7867136537706418
1169.0,2.2696372607973068
1170.0,1.9116667988633596
1171.0,2.4370355043218415
1172.0,2.197960395167675
1173.0,2.0387965956451253
1174.0,2.0613897428952965
1175.0,1.7686690651699015
1176.0,1.4113247668046478
1177.0,1.3197235518875066
1178.0,1.1721704692432264
1179.0,1.1283992703228165
1180.0,0.9001650739196998
1181.0,0.41026371907061293
1182.0,0.13005019079817307
1183.0,0.29689525280372375
1184.0,0.020139961857364577
1185.0,0.045625545867367466
1186.0,0.8924596461309593
1187.0,1.182886628783248
1188.0,0.9111555192452517
1189.0,1.3269937671452101
1190.0,1.5145036089922632
1191.0,1.7736992887557514
1192.0,1.924528523473882
1193.0,1.6986291321600082
1194.0,2.1618473524462645
1195.0,2.8805444488569343
1196.0,2.280591827315927
1197.0,3.0394391732165116
1198.0,2.3746048448580503
1199.0,2.925139748741543
1200.0,3.6782853290609454
1201.0,3.5786842217309833
1202.0,3.2492607812443506
1203.0,3.80614577771008
1204.0,3.966290230485887
1205.0,3.5283549698275345
1206.0,3.849692322797134
1207.0,3.9821263590287077
1208.0,4.302856574130492
1209.0,4.267396261499392
1210.0,4.392311065330941
1211.0,4.614172763519714
1212.0,5.3030426513500135
1213.0,5.13923857451789
1214.0,5.266489783837479
1215.0,5.218970450261475
1216.0,5.367575375324579
1217.0,5.377526964135015
1218.0,5.176035558716467
1219.0,5.893356457397429
1220.0,6.114122804139499
1221.0,5.842007244312098
1222.0,6.418380848585003
1223.0,6.555004064773852
1224.0,6.016988264255531
1225.0,6.1954744147984995
1226.0,6.083057928438425
1227.0,5.847102859007732
1228.0,5.839089945085334
1229.0,5.835664230295657
1230.0,5.812173067560174
1231.0,5.597157501502973
1232.0,5.142656851296238
1233.0,5.129815149680066
1234.0,5.21546292056332
1235.0,4.462138298243442
1236.0,3.3780274438513374
1237.0,3.8323829849200353
1238.0,3.73416467095838
1239.0,3.671021280587101
1240.0,3.3263281546180927
1241.0,3.2477993723210363
1242.0,3.013036678084389
1243.0,2.707473828793751
1244.0,2.9310077354911126
1245.0,3.10025606696537
1246.0,2.787132536286332
1247.0,2.837957358063578
1248.0,2.271919111004002
1249.0,2.662268346405218
1250.0,2.016968557941275
1251.0,2.074140056891945
1252.0,2.698179977029463
1253.0,2.9075650059389564
1254.0,2.219147533509426
1255.0,1.9978244270842684
1256.0,2.2112110815907657
1257.0,2.3596985102437924
1258.0,2.170335426926934
1259.0,1.6134389039513097
1260.0,1.7519092373158767
1261.0,2.1303425623622716
1262.0,2.4270664878399804
1263.0,1.8792545956669229
1264.0,2.0557549850659353
1265.0,1.1929341848285677
1266.0,1.5480970772558416
1267.0,1.8127660439789912
1268.0,1.6518497808396861
1269.0,1.2775996691693505
1270.0,1.1447629778966064
1271.0,1.1230701366627134
1272.0,1.096441867700846
1273.0,1.3106370006781458
1274.0,1.5008600127402758
1275.0,1.6253888759573807
1276.0,1.5042533533857951
1277.0,1.3839546030554626
1278.0,1.509827541178495
1279.0,1.2489534411216725
1280.0,1.3202052473023163
1281.0,1.4952628416803206
1282.0,1.6657181810403747
1283.0,1.4694855799848014
1284.0,1.4674185466084426
1285.0,1.616032477356203
1286.0,1.4264540915497876
1287.0,0.9668842321684423
1288.0,0.621954441097212
1289.0,0.34933349213456594
1290.0,0.2726023051433217
1291.0,0.6631999438844359
1292.0,0.5927848230697685
1293.0,0.5827372968321277
1294.0,0.14042171058309713
1295.0,0.27158795698771443
1296.0,0.6114176797738664
1297.0,0.8627897827654671
1298.0,0.41080239270465235
1299.0,0.23237343759378698
1300.0,0.2656680174737199
1301.0,0.285184627422428
1302.0,0.17064678041275472
1303.0,0.026124658320535364
1304.0,0.0
1305.0,0.0
1306.0,0.0
1307.0,0.0
1308.0,0.0
1309.0,0.0
1310.0,0.0
1311.0,0.0
1312.0,0.0
1313.0,0.0
1314.0,0.0
1315.0,0.0
1316.0,0.0
1317.0,0.0
1318.0,0.0
1319.0,0.0
1320.0,0.0
1321.0,0.0
1322.0,0.0
1323.0,0.0
1324.0,0.0
1325.0,0.0
1326.0,0.0
1327.0,0.0
1328.0,0.0
1329.0,0.0
1330.0,0.0
1331.0,0.0
1332.0,0.0
1333.0,0.0
1334.0,0.0
1335.0,0.0
1336.0,0.0
1337.0,0.0
1338.0,0.0
1339.0,0.0
1340.0,0.0
1341.0,0.0
1342.0,0.0
1343.0,0.0
1344.0,0.0
1345.0,0.0
1346.0,0.0
1347.0,0.0
1348.0,0.0
1349.0,0.0
1350.0,0.0
1351.0,0.0
1352.0,0.0
1353.0,0.0
1354.0,0.0
1355.0,0.0
1356.0,0.0
1357.0,0.0
1358.0,0.0
1359.0,0.0
1360.0,0.0
1361.0,0.0
1362.0,0.0
1363.0,0.0
1364.0,0.0
1365.0,0.0
1366.0,0.0
1367.0,0.0
1368.0,0.0
1369.0,0.0
1370.0,0.0
1371.0,0.0
1372.0,0.0
1373.0,0.0
1374.0,0.0
1375.0,0.0
1376.0,0.0
1377.0,0.0
1378.0,0.0
1379.0,0.0
1380.0,0.0
1381.0,0.0
1382.0,0.0
1383.0,0.0
1384.0,0.0
1385.0,0.0
1386.0,0.0
1387.0,0.0
1388.0,0.0
1389.0,0.0
1390.0,0.0
1391.0,0.0
1392.0,0.0
1393.0,0.0
1394.0,0.0
1395.0,0.0
1396.0,0.0
1397.0,0.0
1398.0,0.0
1399.0,0.0
1400.0,0.0
1401.0,0.0
1402.0,0.0
1403.0,0.0
1404.0,0.0
1405.0,0.0
1406.0,0.0
1407.0,0.0
1408.0,0.0
1409.0,0.0
1410.0,0.0
1411.0,0.0
1412.0,0.0
1413.0,0.0
1414.0,0.0
1415.0,0.0
1416.0,0.0
1417.0,0.0
1418.0,0.0
1419.0,0.0
1420.0,0.0
1421.0,0.0
1422.0,0.0
1423.0,0.0
1424.0,0.0
1425.0,0.0
1426.0,0.0
1427.0,0.0
1428.0,0.0
1429.0,0.0
1430.0,0.0
1431.0,0.0
1432.0,0.0
1433.0,0.0
1434.0,0.0
1435.0,0.0
1436.0,0.0
1437.0,0.0
1438.0,0.0
1439.0,0.0
1440.0,0.0
1441.0,0.0
1442.0,0.0
1443.0,0.0
1444.0,0.0
1445.0,0.0
1446.0,0.0
1447.0,0.0
1448.0,0.0
1449.0,0.0
1450.0,0.0
1451.0,0.0
1452.0,0.0
1453.0,0.0
1454.0,0.0
1455.0,0.0
1456.0,0.0
1457.0,0.0
1458.0,0.0
1459.0,0.0
1460.0,0.0
1461.0,0.0
1462.0,0.0
1463.0,0.0
1464.0,0.0
1465.0,0.0
1466.0,0.0
1467.0,0.0
1468.0,0.0
1469.0,0.0
1470.0,0.0
1471.0,0.0
1472.0,0.0
1473.0,0.0
1474.0,0.0
1475.0,0.0
1476.0,0.0
1477.0,0.0
1478.0,0.0
1479.0,0.0
1480.0,0.0
1481.0,0.0
1482.0,0.0
1483.0,0.0
1484.0,0.0
1485.0,0.0
1486.0,0.0
1487.0,0.0
1488.0,0.0
1489.0,0.0
1490.0,0.0
1491.0,0.0
1492.0,0.0
1493.0,0.0
1494.0,0.0
1495.0,0.0
1496.0,0.0
1497.0,0.0
1498.0,0.0
1499.0,0.0
1500.0,0.0
1501.0,0.0
1502.0,0.0
1503.0,0.0
1504.0,0.0
1505.0,0.0
1506.0,0.0
1507.0,0.0
1508.0,0.0
1509.0,0.0
1510.0,0.0
1511.0,0.0
1512.0,0.0
1513.0,0.0
1514.0,0.0
1515.0,0.0
1516.0,0.0
1517.0,0.0
1518.0,0.0
1519.0,0.0
1520.0,0.0
1521.0,0.0
1522.0,0.0
1523.0,0.0
1524.0,0.0
1525.0,0.0
1526.0,0.0
1527.0,0.0
1528.0,0.0
1529.0,0.0
1530.0,0.0
1531.0,0.0
1532.0,0.0
1533.0,0.0
1534.0,0.0
1535.0,0.0
1536.0,0.0
1537.0,0.0
1538.0,0.0
1539.0,0.0
1540.0,0.0
1541.0,0.0
1542.0,0.0
1543.0,0.0
1544.0,0.0
1545.0,0.0
1546.0,0.0
1547.0,0.0
1548.0,0.0
1549.0,0.0
1550.0,0.0
1551.0,0.0
1552.0,0.0
1553.0,0.0
1554.0,0.0
1555.0,0.0
1556.0,0.0
1557.0,0.0
1558.0,0.0
1559.0,0.0
1560.0,0.0
1561.0,0.0
1562.0,0.0
1563.0,0.0
1564.0,0.0
1565.0,0.0
1566.0,0.0
1567.0,0.0
1568.0,0.0
1569.0,0.0
1570.0,0.0
1571.0,0.0
1572.0,0.0
1573.0,0.0
1574.0,0.0
1575.0,0.0
1576.0,0.0
1577.0,0.0
1578.0,0.0
1579.0,0.0
1580.0,0.0
1581.0,0.0
1582.0,0.0
1583.0,0.0
1584.0,0.0
1585.0,0.0
1586.0,0.0
1587.0,0.0
1588.0,0.0
1589.0,0.0
1590.0,0.0
1591.0,0.0
1592.0,0.0
1593.0,0.0
1594.0,0.0
1595.0,0.0
1596.0,0.0
1597.0,0.0
1598.0,0.0
1599.0,0.0
